8.024
7.996
7.976
7.976
8.02
8.004
7.968
7.972
8.016
8.032
7.984
7.972
8.004
8.02
7.976
8.004
8.04
8.088
8.08
8.092
8.096
8.06
8.064
8.1
8.136
8.16
8.148
8.072
8.06
8.064
8.044
8
8.02
8.036
8.02
7.976
7.968
7.984
7.968
7.916
7.924
7.96
7.952
7.948
7.936
7.944
7.992
7.948
7.904
7.84
7.784
7.86
7.964
8.328
8.88
9.472
10.156
10.392
9.988
9.416
8.84
8.292
7.884
7.824
7.92
7.972
8.084
8.1
8.056
8.056
8.064
8.08
8.048
8.028
8.032
8.068
8.048
8.032
8.048
8.056
8.072
8.032
8.06
8.084
8.084
8.056
8.056
8.096
8.124
8.1
8.088
8.124
8.1
8.124
8.112
8.128
8.152
8.128
8.148
8.156
8.184
8.176
8.168
8.196
8.24
8.248
8.216
8.228
8.284
8.308
8.3
8.316
8.376
8.392
8.38
8.424
8.452
8.504
8.52
8.544
8.624
8.64
8.66
8.696
8.728
8.812
8.82
8.848
8.876
8.912
8.964
8.964
9.008
9.036
9.036
9.02
9.012
8.956
8.936
8.852
8.768
8.736
8.664
8.564
8.476
8.444
8.4
8.332
8.244
8.2
8.188
8.152
8.092
8.076
8.084
8.068
8.028
8.04
8.052
8.028
8.02
8.008
8.044
8.036
8.004
7.988
8.048
8.068
8.032
8.012
8.028
8.032
8.04
8.024
8.024
8.032
8.036
8.012
8.04
8.032
8.052
8.012
8.028
8.056
8.064
8.008
7.996
8.028
8.052
8.024
8
8.04
8.036
8.02
8
8.016
8.036
7.988
7.988
8.012
8.024
8.012
7.956
7.972
8.012
8.016
7.976
7.96
8.008
8.016
7.984
7.976
7.988
7.992
7.984
7.972
7.992
8.008
7.944
7.944
7.98
7.996
7.98
7.94
7.988
8.008
7.976
7.968
7.964
7.988
7.98
7.992
7.96
7.992
7.992
7.964
7.972
7.996
8
7.968
7.964
7.992
8.02
7.968
7.964
7.972
7.988
7.976
7.964
7.972
8.004
7.976
7.98
7.968
7.988
7.968
7.956
7.972
7.988
7.976
7.968
7.964
7.996
8.008
7.968
7.952
7.98
8
7.98
7.964
7.952
7.988
7.972
7.956
7.964
7.984
7.984
7.94
7.968
7.992
7.976
7.976
7.964
7.98
7.984
7.972
7.944
7.992
7.996
7.964
7.944
7.988
8.004
7.952
7.972
7.992
8.044
8.02
8.032
8.08
8.08
8.04
8.032
8.088
8.148
8.156
8.1
8.06
8.092
8.06
8.028
7.992
8.02
8.036
7.992
7.976
7.992
7.968
7.924
7.908
7.96
7.972
7.932
7.924
7.936
7.976
7.948
7.936
7.88
7.844
7.792
7.832
8.024
8.444
8.98
9.6
10.252
10.404
9.904
9.296
8.772
8.236
7.868
7.844
7.924
8.044
8.12
8.088
8.068
8.072
8.056
8.048
8.036
8.044
8.072
8.048
8.024
8.048
8.088
8.08
8.056
8.052
8.08
8.088
8.068
8.06
8.092
8.096
8.1
8.076
8.092
8.132
8.104
8.084
8.12
8.168
8.14
8.136
8.152
8.18
8.2
8.18
8.192
8.212
8.228
8.232
8.228
8.268
8.288
8.264
8.284
8.352
8.368
8.356
8.372
8.452
8.476
8.484
8.504
8.54
8.592
8.628
8.62
8.668
8.74
8.8
8.808
8.844
8.908
8.952
8.968
8.98
9.04
9.036
9.02
9.016
9.036
9.008
8.928
8.868
8.86
8.8
8.692
8.608
8.532
8.492
8.408
8.32
8.276
8.24
8.172
8.16
8.132
8.108
8.076
8.04
8.024
8.032
8.06
8.02
7.992
8.044
8.048
8.024
8
8.02
8.04
8.012
8.012
8.024
8.048
8.012
8.004
8.016
8.048
8.056
8.024
8.028
8.044
8.048
8.012
7.992
8.036
8.048
8.012
7.992
8.032
8.024
8.012
7.98
8.008
8.04
8.004
7.972
7.996
8.028
8.012
7.968
7.992
8.024
8.028
7.968
7.972
8.004
8.008
7.968
7.944
7.988
7.98
7.964
7.948
7.988
7.98
7.952
7.944
7.976
7.988
7.952
7.952
7.924
7.96
7.964
7.948
7.936
7.988
7.968
7.956
7.928
7.98
7.96
7.928
7.952
7.96
7.968
7.936
7.928
7.968
7.992
7.96
7.92
7.932
7.98
7.948
7.924
7.944
7.968
7.956
7.944
7.956
7.956
7.948
7.908
7.948
7.976
7.984
7.932
7.924
7.948
7.972
7.936
7.908
7.944
7.968
7.944
7.92
7.952
7.956
7.94
7.908
7.94
7.98
7.948
7.924
7.948
7.988
7.948
7.932
7.932
7.972
7.956
7.948
7.92
7.956
7.976
7.96
7.944
7.964
7.968
7.932
7.948
7.956
7.972
7.94
7.96
8.008
8.044
8.04
8.016
7.988
8.02
8.064
8.076
8.116
8.116
8.1
8.036
8.044
8.016
8.016
8.004
7.984
8
7.988
7.94
7.932
7.936
7.968
7.92
7.904
7.932
7.944
7.932
7.904
7.904
7.928
7.936
7.848
7.768
7.772
7.86
8.088
8.484
9.1
9.768
10.28
10.244
9.704
9.192
8.644
8.056
7.784
7.844
7.94
8
8.024
8.072
8.044
7.988
8.02
8.032
8.032
7.996
7.988
8.024
8.04
8
7.992
8.028
8.06
8.012
7.992
8.052
8.064
8.036
8.036
8.048
8.044
8.076
8.048
8.084
8.104
8.092
8.092
8.084
8.128
8.144
8.108
8.104
8.176
8.164
8.132
8.164
8.2
8.216
8.188
8.2
8.232
8.26
8.264
8.292
8.316
8.364
8.376
8.364
8.408
8.488
8.504
8.508
8.556
8.62
8.636
8.66
8.716
8.78
8.804
8.828
8.872
8.944
8.96
8.956
8.98
9.044
9.06
9
8.964
8.964
8.948
8.868
8.796
8.732
8.66
8.58
8.48
8.416
8.364
8.32
8.22
8.192
8.176
8.152
8.068
8.06
8.044
8.052
8.02
8.012
8.012
8.048
8.036
8.004
8.016
8.008
8.004
7.996
8
8.004
8.012
8.004
8
8.036
8.02
7.996
7.996
8.044
8.048
8.024
8.004
8.036
8.028
8.032
8.008
8.02
8.04
8.012
8.016
8.02
8.02
7.992
7.98
8.028
8.036
8.02
7.984
7.984
8.036
8.024
7.98
7.98
8.008
8.02
7.988
7.988
7.988
8
7.988
7.964
8.016
7.996
7.96
7.972
7.984
7.988
7.988
7.94
7.98
8.004
7.992
7.964
7.972
7.988
7.984
7.98
7.968
7.996
7.996
7.964
7.968
8.012
7.988
7.956
7.952
8.012
8.012
7.964
7.98
7.976
7.98
7.972
7.964
7.964
7.988
7.968
7.964
7.98
7.992
7.984
7.948
7.972
8.016
8.004
7.972
7.964
8.004
7.992
7.952
7.964
8.004
8.008
7.948
7.976
7.98
8.016
8
7.968
7.996
8.004
7.988
7.996
7.98
8.008
8.028
7.964
7.96
8.004
8.028
8
8.024
8.052
8.088
8.048
8.064
8.06
8.068
8.084
8.14
8.168
8.14
8.056
8.056
8.06
8.08
8.032
8.004
8.024
8.036
8.012
7.988
7.952
7.96
7.96
7.94
7.936
7.952
7.984
7.944
7.944
7.98
7.988
7.916
7.84
7.788
7.836
7.96
8.236
8.76
9.412
10.072
10.4
10.08
9.508
8.98
8.44
7.964
7.816
7.9
7.98
8.052
8.12
8.136
8.096
8.072
8.1
8.108
8.072
8.044
8.068
8.1
8.096
8.068
8.084
8.1
8.104
8.072
8.104
8.104
8.124
8.088
8.108
8.164
8.156
8.112
8.14
8.152
8.168
8.144
8.128
8.176
8.208
8.184
8.188
8.2
8.232
8.228
8.22
8.26
8.28
8.284
8.28
8.288
8.34
8.372
8.356
8.368
8.408
8.44
8.448
8.456
8.54
8.596
8.584
8.624
8.668
8.732
8.744
8.764
8.828
8.888
8.888
8.896
8.964
9.036
9.044
9.028
9.072
9.1
9.1
9.068
9.032
9.016
8.972
8.884
8.82
8.748
8.7
8.572
8.504
8.46
8.436
8.34
8.276
8.256
8.236
8.196
8.144
8.156
8.152
8.136
8.08
8.092
8.112
8.12
8.076
8.096
8.116
8.12
8.092
8.084
8.12
8.128
8.08
8.088
8.104
8.128
8.1
8.092
8.112
8.12
8.128
8.088
8.116
8.116
8.116
8.092
8.096
8.14
8.12
8.08
8.072
8.112
8.12
8.084
8.072
8.116
8.112
8.092
8.064
8.088
8.076
8.072
8.068
8.096
8.088
8.064
8.04
8.056
8.096
8.06
8.044
8.056
8.064
8.084
8.036
8.032
8.08
8.084
8.028
8.044
8.068
8.06
8.044
8.02
8.044
8.084
8.048
8.04
8.044
8.088
8.056
8.02
8.04
8.064
8.06
8.02
8.04
8.048
8.064
8.036
8.044
8.052
8.048
8.008
8.036
8.076
8.052
8.044
8.028
8.048
8.08
8.036
8.012
8.032
8.064
8.06
8.008
8.008
8.052
8.048
8.024
8.016
8.06
8.072
8.02
8.012
8.04
8.06
8.016
8.024
8.048
8.068
8.032
8.02
8.048
8.064
8.04
8.016
8.024
8.052
8.024
8.02
8.044
8.056
8.076
8.068
8.1
8.12
8.152
8.092
8.08
8.116
8.192
8.188
8.184
8.172
8.144
8.116
8.104
8.092
8.096
8.064
8.032
8.064
8.08
8.036
7.98
7.976
8
7.988
7.956
7.984
8.024
8.02
7.984
7.992
8.024
7.984
7.888
7.804
7.888
8.064
8.376
8.9
9.544
10.224
10.46
10.052
9.452
8.948
8.4
7.932
7.868
7.984
8.052
8.112
8.136
8.164
8.144
8.092
8.072
8.12
8.112
8.072
8.076
8.116
8.124
8.08
8.06
8.112
8.12
8.112
8.096
8.12
8.144
8.124
8.096
8.124
8.14
8.152
8.136
8.144
8.18
8.168
8.152
8.168
8.224
8.22
8.2
8.208
8.256
8.268
8.228
8.232
8.268
8.312
8.312
8.308
8.356
8.376
8.384
8.368
8.428
8.488
8.46
8.484
8.524
8.584
8.62
8.628
8.66
8.72
8.8
8.792
8.812
8.864
8.92
8.936
8.988
9.044
9.08
9.06
9.072
9.124
9.128
9.1
9.028
9.012
9.004
8.928
8.792
8.748
8.692
8.62
8.52
8.436
8.4
8.364
8.26
8.24
8.244
8.22
8.16
8.128
8.148
8.168
8.108
8.088
8.084
8.128
8.096
8.056
8.084
8.112
8.084
8.084
8.092
8.116
8.128
8.076
8.068
8.14
8.132
8.072
8.064
8.12
8.128
8.092
8.096
8.124
8.144
8.12
8.1
8.1
8.112
8.116
8.092
8.092
8.108
8.12
8.088
8.076
8.136
8.132
8.084
8.084
8.128
8.132
8.084
8.076
8.072
8.112
8.084
8.048
8.084
8.104
8.048
8.044
8.092
8.084
8.072
8.056
8.072
8.08
8.084
8.032
8.04
8.104
8.076
8.056
8.056
8.052
8.072
8.072
8.052
8.08
8.084
8.036
8.012
8.068
8.072
8.048
8.004
8.064
8.092
8.08
8.036
8.056
8.08
8.072
8.036
8.048
8.064
8.06
8.044
8.048
8.076
8.084
8.052
8.04
8.076
8.068
8.024
8.028
8.068
8.088
8.048
8.032
8.04
8.064
8.06
8.048
8.032
8.072
8.084
8.036
8.044
8.072
8.072
8.04
8.052
8.08
8.076
8.044
8.024
8.088
8.088
8.06
8.04
8.056
8.076
8.076
8.096
8.12
8.14
8.144
8.112
8.096
8.164
8.184
8.196
8.18
8.152
8.156
8.096
8.06
8.084
8.12
8.064
8.02
8.024
8.048
8.008
7.992
8.004
7.984
7.968
7.976
8.008
8.012
8.008
7.988
8.004
8.024
7.94
7.836
7.816
7.964
8.256
8.68
9.224
9.956
10.44
10.292
9.7
9.168
8.664
8.092
7.828
7.932
8.064
8.1
8.124
8.132
8.156
8.124
8.092
8.096
8.136
8.124
8.096
8.108
8.12
8.12
8.1
8.12
8.148
8.132
8.128
8.1
8.148
8.156
8.14
8.112
8.164
8.188
8.164
8.144
8.148
8.172
8.184
8.172
8.204
8.212
8.228
8.208
8.24
8.256
8.28
8.248
8.268
8.32
8.332
8.288
8.312
8.356
8.388
8.392
8.416
8.456
8.5
8.508
8.524
8.572
8.628
8.636
8.656
8.704
8.768
8.812
8.8
8.852
8.924
8.984
8.972
8.988
9.076
9.112
9.1
9.092
9.128
9.108
9.088
9.02
8.988
8.96
8.856
8.768
8.712
8.664
8.572
8.488
8.428
8.392
8.348
8.268
8.244
8.228
8.208
8.152
8.144
8.152
8.148
8.1
8.088
8.132
8.128
8.1
8.072
8.108
8.128
8.088
8.088
8.092
8.148
8.108
8.104
8.1
8.136
8.12
8.1
8.104
8.12
8.136
8.088
8.112
8.116
8.144
8.1
8.08
8.12
8.148
8.1
8.064
8.096
8.12
8.108
8.084
8.1
8.096
8.088
8.08
8.08
8.104
8.084
8.064
8.096
8.092
8.116
8.064
8.064
8.092
8.104
8.08
8.048
8.088
8.08
8.064
8.044
8.076
8.08
8.076
8.06
8.08
8.104
8.068
8.04
8.064
8.104
8.064
8.048
8.052
8.08
8.104
8.06
8.044
8.056
8.076
8.032
8.056
8.064
8.064
8.056
8.048
8.096
8.072
8.044
8.056
8.072
8.112
8.064
8.04
8.052
8.096
8.1
8.064
8.052
8.084
8.1
8.072
8.048
8.068
8.08
8.032
8.044
8.072
8.08
8.052
8.056
8.084
8.088
8.072
8.052
8.044
8.092
8.084
8.052
8.056
8.092
8.088
8.076
8.072
8.096
8.096
8.04
8.064
8.08
8.112
8.044
8.032
8.08
8.116
8.116
8.1
8.156
8.2
8.168
8.144
8.14
8.18
8.224
8.22
8.212
8.176
8.152
8.112
8.108
8.132
8.14
8.08
8.084
8.108
8.1
8.048
7.988
8.036
8.048
8.036
8.016
8.028
8.044
8.012
8
8.036
8.028
7.92
7.812
7.884
8.06
8.408
8.88
9.48
10.192
10.5
10.104
9.516
9.02
8.448
7.976
7.872
8.012
8.088
8.116
8.132
8.168
8.172
8.136
8.088
8.128
8.144
8.132
8.112
8.112
8.132
8.14
8.116
8.096
8.136
8.156
8.14
8.124
8.148
8.156
8.144
8.128
8.192
8.204
8.176
8.132
8.192
8.224
8.204
8.196
8.208
8.236
8.22
8.232
8.252
8.256
8.256
8.244
8.292
8.324
8.336
8.312
8.304
8.396
8.42
8.412
8.404
8.464
8.528
8.524
8.536
8.592
8.624
8.664
8.668
8.74
8.8
8.804
8.808
8.884
8.932
8.972
8.968
8.992
9.068
9.124
9.088
9.096
9.108
9.12
9.056
9.008
8.992
8.908
8.852
8.74
8.684
8.62
8.568
8.464
8.416
8.376
8.3
8.252
8.216
8.224
8.196
8.128
8.132
8.152
8.112
8.092
8.088
8.112
8.104
8.068
8.088
8.116
8.124
8.068
8.076
8.088
8.132
8.1
8.06
8.088
8.128
8.104
8.068
8.104
8.116
8.136
8.088
8.096
8.116
8.116
8.088
8.092
8.12
8.108
8.056
8.052
8.116
8.112
8.08
8.06
8.088
8.088
8.064
8.06
8.04
8.076
8.072
8.044
8.048
8.072
8.064
8.04
8.044
8.08
8.084
8.052
8.016
8.06
8.072
8.056
8.004
8.044
8.052
8.036
8.036
8.024
8.048
8.016
8.012
8.048
8.056
8.052
8
8.016
8.064
8.032
7.984
7.992
8.032
8.056
8.016
8.012
8.028
8.028
8.024
8.004
8.036
8.032
8.012
8.016
8.02
8.036
8.024
7.988
8.024
8.052
8.028
8.008
8.024
8.044
8.028
8.008
8.008
8.048
8.04
8.016
8.024
8.028
8.048
7.988
7.964
8.04
8.028
8.016
7.976
8.008
8.016
8.024
7.992
7.984
8.012
8.02
8.036
8.064
8.112
8.12
8.108
8.068
8.1
8.12
8.152
8.168
8.2
8.14
8.068
8.052
8.068
8.072
8.052
8.028
8.008
8.016
7.988
7.972
7.948
7.964
7.944
7.956
7.96
7.988
7.968
7.952
7.932
7.976
7.98
7.86
7.776
7.8
7.912
8.144
8.572
9.144
9.856
10.36
10.292
9.744
9.188
8.632
8.064
7.832
7.88
7.992
8.02
8.076
8.124
8.128
8.068
8.036
8.072
8.088
8.068
8.04
8.08
8.068
8.056
8.048
8.08
8.084
8.056
8.036
8.112
8.092
8.1
8.076
8.112
8.124
8.112
8.088
8.112
8.152
8.156
8.14
8.112
8.176
8.188
8.156
8.152
8.2
8.204
8.192
8.192
8.236
8.28
8.26
8.232
8.288
8.34
8.336
8.312
8.36
8.428
8.444
8.448
8.476
8.524
8.564
8.572
8.616
8.684
8.712
8.704
8.74
8.856
8.884
8.884
8.904
8.964
9.028
9.04
9.028
9.048
9.068
9.04
9.008
8.984
8.964
8.868
8.772
8.712
8.644
8.568
8.476
8.412
8.4
8.316
8.256
8.192
8.196
8.168
8.12
8.092
8.104
8.092
8.068
8.048
8.072
8.076
8.04
8.036
8.028
8.052
8.048
8
8.024
8.064
8.056
8.036
8.012
8.052
8.048
8.044
8.036
8.064
8.044
8.032
8.024
8.048
8.072
8.032
8.012
8.04
8.052
8.028
8.028
8.032
8.068
8.052
8.012
8.028
8.036
8.036
8.016
8.004
8.032
8.044
8
8.004
8.032
8.028
8.016
7.992
8.012
8.02
8.016
7.96
8.016
8.02
8.012
7.98
8
8.016
8
7.98
8
8
8
7.944
8.004
8.008
8.008
7.956
7.96
7.996
8.012
7.964
7.964
7.988
8.012
7.988
7.964
7.996
7.988
7.996
7.976
7.992
8.004
7.972
7.956
7.984
8
8.012
7.964
7.952
8.008
8.02
7.948
7.972
7.992
7.988
7.968
7.972
7.988
8.004
7.976
7.952
7.968
8.004
7.968
7.956
7.984
8.008
7.988
7.952
7.948
8
7.984
7.96
7.964
8
7.984
7.964
7.972
8.012
8.044
8.012
8.06
8.104
8.072
8.024
8.056
8.136
8.184
8.132
8.076
8.08
8.084
8.052
8.02
8.016
8.032
8.028
8
7.984
7.988
7.968
7.92
7.932
7.976
7.964
7.944
7.932
7.956
7.976
7.96
7.904
7.872
7.804
7.796
7.88
8.176
8.632
9.184
9.86
10.344
10.256
9.668
9.088
8.564
8.032
7.812
7.868
7.956
8.048
8.104
8.088
8.052
8.06
8.052
8.036
8.008
8.064
8.048
8.02
8.028
8.048
8.06
8.052
8.036
8.052
8.104
8.08
8.048
8.036
8.064
8.108
8.08
8.076
8.108
8.096
8.108
8.108
8.128
8.124
8.12
8.132
8.168
8.188
8.152
8.168
8.18
8.224
8.232
8.188
8.232
8.244
8.292
8.3
8.284
8.352
8.38
8.36
8.4
8.464
8.496
8.492
8.516
8.58
8.644
8.656
8.668
8.74
8.784
8.832
8.852
8.876
8.928
8.944
8.972
9.004
9.036
9.024
9.02
9.02
9.032
8.968
8.908
8.812
8.788
8.724
8.624
8.528
8.492
8.444
8.34
8.276
8.248
8.232
8.164
8.148
8.132
8.092
8.088
8.048
8.048
8.072
8.052
8.02
8.016
8.032
8.068
8.016
8
8.052
8.052
8.024
8.028
8.04
8.056
8.016
8.016
8.052
8.052
8.032
8.016
8.044
8.06
8.048
8.012
8.02
8.048
8.064
8.016
8.02
8.056
8.06
8.024
8.016
8.036
8.04
8.008
8.024
8.048
8.044
8.004
7.988
8.036
8.04
8.004
7.984
8.02
8.04
8.02
7.98
7.996
8.028
8.008
7.992
7.972
8.008
8.004
7.984
7.988
8.012
8.032
7.988
7.96
7.992
8.004
7.98
7.952
8
8
7.98
7.988
8.004
8.024
7.988
7.964
8
8.008
7.98
7.964
7.976
8.024
8.028
7.984
7.988
7.992
8.02
7.996
7.952
7.996
8.012
8.004
7.98
7.992
8
8
7.972
7.992
8.028
8.004
7.972
7.984
8.004
8.016
7.984
7.984
8.02
8.032
7.996
7.984
8
8.02
8.02
8
8.02
8.008
8.008
7.984
8
8.032
8.024
8.02
8.068
8.12
8.104
8.064
8.06
8.092
8.144
8.144
8.144
8.124
8.124
8.084
8.072
8.072
8.052
8.016
8.024
8.04
8.056
8
7.964
7.98
7.992
7.964
7.956
7.972
8
7.976
7.968
7.964
7.988
7.968
7.876
7.804
7.876
8.004
8.284
8.796
9.436
10.144
10.408
10.104
9.52
9.016
8.456
7.928
7.836
7.968
8.032
8.068
8.092
8.14
8.112
8.076
8.088
8.108
8.104
8.048
8.068
8.108
8.112
8.08
8.052
8.112
8.136
8.092
8.076
8.104
8.132
8.12
8.112
8.116
8.144
8.136
8.128
8.144
8.18
8.168
8.148
8.176
8.204
8.22
8.184
8.188
8.244
8.244
8.228
8.232
8.272
8.308
8.288
8.3
8.34
8.36
8.356
8.364
8.4
8.468
8.46
8.476
8.52
8.592
8.6
8.612
8.656
8.712
8.764
8.768
8.824
8.892
8.904
8.92
8.964
9.032
9.06
9.032
9.04
9.096
9.108
9.068
9.008
8.992
8.964
8.896
8.784
8.724
8.676
8.588
8.5
8.424
8.38
8.332
8.272
8.224
8.232
8.196
8.116
8.116
8.128
8.124
8.084
8.068
8.092
8.12
8.072
8.056
8.064
8.1
8.064
8.064
8.08
8.108
8.068
8.04
8.068
8.108
8.084
8.056
8.064
8.104
8.128
8.076
8.068
8.104
8.108
8.096
8.072
8.096
8.1
8.072
8.072
8.1
8.1
8.088
8.056
8.08
8.108
8.068
8.036
8.052
8.072
8.064
8.024
8.008
8.052
8.052
8.024
8.032
8.056
8.04
8.028
8.016
8.06
8.068
8.02
8.02
8.052
8.052
8.036
8.012
8.012
8.032
8.04
8.024
8.016
8.048
8.04
8.02
8.024
8.028
8.02
8.008
8.004
8.032
8.028
8.016
7.988
8.024
8.036
8.028
8
8.02
8.036
8.028
7.992
8.004
8.02
8.008
7.996
8.02
8.028
8.024
8.008
7.996
8.024
8.032
8.004
7.988
8.036
8.056
8.008
7.992
8.024
8.024
8.012
7.992
8.024
8.04
8.012
7.976
8.04
8.032
8.016
7.992
8.02
8.084
8.128
8.112
8.132
8.116
8.104
8.092
8.12
8.184
8.22
8.152
8.104
8.14
8.136
8.076
8.06
8.092
8.108
8.052
8.012
8.02
8.048
8.016
7.96
7.98
8.008
8.008
7.984
7.988
7.996
8.012
7.988
7.968
7.92
7.84
7.852
7.952
8.328
8.84
9.4
10.08
10.464
10.184
9.552
8.996
8.488
7.98
7.852
7.948
8.032
8.092
8.148
8.144
8.136
8.14
8.14
8.092
8.084
8.124
8.116
8.112
8.084
8.124
8.144
8.104
8.088
8.128
8.144
8.128
8.132
8.144
8.14
8.128
8.132
8.152
8.18
8.172
8.132
8.164
8.196
8.224
8.176
8.188
8.208
8.268
8.248
8.232
8.252
8.296
8.296
8.284
8.308
8.356
8.324
8.348
8.392
8.4
8.432
8.436
8.484
8.54
8.552
8.556
8.6
8.664
8.708
8.7
8.752
8.828
8.856
8.864
8.892
8.956
8.984
9.008
9.028
9.076
9.124
9.076
9.064
9.06
9.06
9.024
8.916
8.872
8.836
8.748
8.628
8.568
8.512
8.448
8.336
8.312
8.3
8.24
8.188
8.144
8.172
8.164
8.128
8.064
8.084
8.116
8.084
8.076
8.088
8.112
8.096
8.08
8.076
8.104
8.104
8.068
8.092
8.096
8.108
8.068
8.084
8.1
8.12
8.104
8.08
8.092
8.104
8.1
8.06
8.108
8.124
8.068
8.076
8.092
8.12
8.076
8.056
8.068
8.1
8.1
8.064
8.044
8.084
8.108
8.044
8.048
8.076
8.076
8.072
8.044
8.072
8.048
8.04
8.04
8.052
8.08
8.036
8.04
8.032
8.06
8.036
8.028
8.016
8.064
8.064
8.02
8.008
8.052
8.056
8.028
8.016
8.04
8.028
8
8.016
8.036
8.044
8.008
8.012
8.028
8.048
8.012
8.004
7.996
8.036
8.028
8.02
8.008
8.028
8.024
8.008
8.024
8.028
8.02
7.988
8
8.036
8.024
8
7.976
8.004
8.02
8.012
7.988
8.02
8.032
8.02
8
8.028
8.024
7.996
8
8.008
8.036
7.996
7.988
8.004
8.044
8.04
7.984
7.976
8.016
8.028
7.992
7.996
8.024
8.032
8.024
8.008
8.016
8.04
8.016
7.992
8.02
8.04
8.04
7.988
8.008
8.016
8.052
8.04
8.064
8.104
8.14
8.124
8.06
8.096
8.12
8.16
8.176
8.192
8.152
8.108
8.084
8.072
8.092
8.056
8.02
8.04
8.032
8.028
7.98
7.972
7.968
7.984
7.96
7.964
8
7.98
7.956
7.968
7.988
7.98
7.896
7.78
7.832
7.916
8.12
8.536
9.128
9.832
10.36
10.288
9.728
9.192
8.66
8.092
7.812
7.892
7.988
8.04
8.088
8.128
8.088
8.044
8.02
8.068
8.068
8.052
8.048
8.064
8.08
8.068
8.044
8.06
8.092
8.052
8.06
8.068
8.112
8.088
8.076
8.092
8.124
8.136
8.084
8.092
8.128
8.136
8.14
8.116
8.156
8.192
8.16
8.16
8.2
8.2
8.196
8.2
8.248
8.264
8.252
8.232
8.288
8.34
8.32
8.328
8.348
8.388
8.436
8.428
8.448
8.52
8.544
8.564
8.592
8.652
8.704
8.7
8.756
8.82
8.86
8.864
8.88
8.948
9.004
9
8.984
9.016
9.036
9.04
9.004
8.96
8.944
8.864
8.804
8.72
8.668
8.616
8.492
8.424
8.384
8.332
8.244
8.208
8.188
8.164
8.112
8.076
8.08
8.084
8.068
8.024
8.04
8.06
8.016
8.024
8.036
8.052
8.056
7.992
8.024
8.06
8.048
8.012
8.004
8.032
8.056
8.028
8
8.036
8.056
8.02
8.008
8.016
8.048
8.024
8.008
8.02
8.048
8.028
8.004
7.996
8.032
8.04
8.004
7.984
8.016
8.032
7.992
7.976
7.992
8.012
7.996
7.964
8
8.016
7.956
7.968
7.968
7.992
7.984
7.948
7.968
7.972
7.98
7.948
7.956
7.976
7.96
7.948
7.96
7.98
7.984
7.968
7.948
7.964
7.972
7.952
7.924
7.972
7.972
7.968
7.944
7.952
7.984
7.952
7.92
7.944
7.96
7.952
7.924
7.944
7.964
7.956
7.916
7.952
7.968
7.952
7.92
7.908
7.964
7.972
7.932
7.924
7.952
7.952
7.936
7.936
7.94
7.968
7.94
7.92
7.936
7.956
7.944
7.928
7.932
7.956
7.956
7.936
7.94
7.952
7.98
7.916
7.92
7.94
7.956
7.94
7.924
7.936
7.952
7.936
7.936
7.94
7.968
7.916
7.908
7.94
7.964
7.948
7.896
7.92
7.936
7.968
7.92
7.932
7.948
7.992
7.984
7.996
8.024
8.04
7.98
7.972
8.064
8.104
8.076
8.056
8.056
8.068
8
7.96
7.944
7.992
8.004
7.94
7.924
7.948
7.912
7.876
7.872
7.892
7.884
7.884
7.88
7.908
7.904
7.888
7.864
7.896
7.816
7.688
7.72
7.856
8.212
8.688
9.252
9.94
10.34
10.072
9.452
8.908
8.404
7.904
7.724
7.824
7.936
8.008
7.98
7.992
8.044
8.028
7.968
7.984
7.976
8.016
7.992
7.952
7.988
7.996
7.964
7.984
7.976
8.008
8.004
7.984
8.012
8.044
8.032
8
8
8.044
8.088
8.028
8.016
8.064
8.076
8.096
8.072
8.092
8.132
8.1
8.096
8.124
8.136
8.148
8.12
8.14
8.18
8.204
8.176
8.2
8.26
8.28
8.276
8.284
8.34
8.388
8.404
8.436
8.476
8.52
8.528
8.568
8.64
8.676
8.704
8.716
8.764
8.844
8.848
8.848
8.896
8.952
8.964
8.952
8.948
8.98
8.936
8.904
8.84
8.816
8.748
8.612
8.564
8.528
8.44
8.34
8.268
8.248
8.212
8.136
8.084
8.06
8.068
8
7.972
7.988
7.992
7.956
7.944
7.944
7.984
7.96
7.936
7.936
7.956
7.976
7.94
7.94
7.956
7.992
7.956
7.948
7.972
7.984
7.956
7.956
7.964
7.972
7.94
7.944
7.96
7.996
7.972
7.936
7.944
7.984
7.98
7.948
7.948
7.944
7.984
7.968
7.928
7.944
7.956
7.956
7.924
7.956
7.984
7.924
7.948
7.948
7.96
7.952
7.896
7.944
7.952
7.924
7.928
7.928
7.96
7.948
7.912
7.908
7.936
7.932
7.9
7.896
7.928
7.932
7.884
7.9
7.936
7.948
7.908
7.892
7.904
7.952
7.924
7.908
7.912
7.924
7.94
7.9
7.92
7.916
7.928
7.9
7.908
7.944
7.94
7.896
7.9
7.932
7.916
7.888
7.88
7.912
7.924
7.876
7.896
7.916
7.912
7.912
7.884
7.92
7.92
7.924
7.876
7.9
7.908
7.908
7.88
7.9
7.92
7.916
7.892
7.88
7.92
7.912
7.896
7.884
7.912
7.904
7.892
7.892
7.912
7.912
7.892
7.884
7.876
7.92
7.908
7.888
7.9
7.908
7.936
7.896
7.892
7.912
7.908
7.936
7.932
7.98
7.988
7.988
7.972
7.972
7.984
8.036
8.048
8.036
8.04
8
7.98
7.948
7.924
7.952
7.936
7.912
7.932
7.936
7.868
7.856
7.868
7.86
7.844
7.828
7.88
7.856
7.856
7.84
7.88
7.884
7.8
7.688
7.696
7.788
8.012
8.404
8.976
9.628
10.204
10.22
9.676
9.156
8.624
8.048
7.72
7.768
7.92
7.928
7.956
8.016
8.008
7.988
7.96
7.956
7.98
7.968
7.94
7.972
7.968
7.956
7.948
7.98
7.984
7.98
7.968
7.964
8.008
8
7.972
7.976
8.024
8.04
8.008
8
8.04
8.052
8.048
8.016
8.056
8.084
8.068
8.064
8.096
8.124
8.092
8.108
8.124
8.164
8.188
8.152
8.172
8.204
8.236
8.232
8.268
8.308
8.332
8.34
8.364
8.416
8.468
8.452
8.512
8.584
8.624
8.628
8.664
8.716
8.764
8.812
8.792
8.852
8.912
8.916
8.936
8.952
8.976
8.948
8.92
8.912
8.888
8.808
8.736
8.66
8.628
8.548
8.44
8.344
8.324
8.264
8.176
8.116
8.08
8.068
8.028
7.996
7.992
7.988
7.964
7.94
7.968
7.972
7.952
7.916
7.916
7.96
7.956
7.912
7.92
7.944
7.956
7.936
7.924
7.972
7.94
7.908
7.936
7.952
7.968
7.952
7.92
7.956
7.976
7.96
7.92
7.932
7.976
7.956
7.936
7.92
7.952
7.94
7.932
7.924
7.956
7.936
7.908
7.904
7.944
7.92
7.928
7.9
7.948
7.956
7.932
7.9
7.924
7.94
7.912
7.892
7.904
7.92
7.932
7.896
7.876
7.916
7.94
7.884
7.892
7.932
7.916
7.9
7.872
7.9
7.924
7.888
7.88
7.916
7.908
7.912
7.884
7.908
7.912
7.916
7.888
7.908
7.916
7.924
7.864
7.884
7.896
7.916
7.884
7.856
7.9
7.928
7.892
7.876
7.908
7.92
7.904
7.876
7.88
7.904
7.884
7.872
7.904
7.928
7.912
7.884
7.872
7.912
7.908
7.904
7.888
7.896
7.92
7.9
7.88
7.916
7.912
7.88
7.9
7.908
7.892
7.864
7.888
7.916
7.916
7.908
7.848
7.884
7.92
7.924
7.916
7.936
7.988
8.008
7.924
7.94
7.984
8.036
8.048
8.016
8.012
7.992
7.976
7.928
7.948
7.96
7.932
7.912
7.912
7.924
7.872
7.84
7.856
7.876
7.86
7.856
7.86
7.876
7.856
7.844
7.856
7.888
7.808
7.684
7.64
7.804
8.052
8.472
8.996
9.736
10.264
10.184
9.616
9.096
8.6
8.052
7.736
7.716
7.844
7.92
7.944
7.984
8.028
7.968
7.96
7.94
7.976
8.004
7.964
7.96
7.996
8.024
7.984
7.956
8
7.992
7.972
7.976
8
8.02
8.008
8.004
8.008
8.032
8.032
8.02
8.032
8.056
8.072
8.052
8.056
8.088
8.084
8.072
8.088
8.128
8.108
8.108
8.12
8.176
8.192
8.172
8.18
8.232
8.252
8.248
8.264
8.316
8.352
8.368
8.388
8.42
8.472
8.5
8.516
8.56
8.632
8.664
8.7
8.728
8.804
8.852
8.84
8.888
8.948
8.984
8.964
8.964
8.984
9.004
8.968
8.9
8.872
8.828
8.744
8.648
8.54
8.496
8.424
8.34
8.268
8.196
8.192
8.128
8.06
8.088
8.144
8
7.984
7.988
7.984
8.06
7.964
7.968
7.98
7.952
7.952
7.956
7.972
7.964
7.928
8.032
7.996
7.976
7.94
7.932
7.988
7.968
7.956
7.924
7.96
7.916
7.956
7.944
7.968
7.972
7.956
7.936
7.968
7.968
7.936
7.94
7.968
7.98
7.952
7.936
7.948
7.964
7.972
7.928
7.924
7.976
7.972
7.928
7.932
7.944
7.96
7.912
7.932
7.956
7.952
7.936
7.908
7.948
7.964
7.948
7.932
7.932
7.948
7.948
7.916
7.928
7.952
7.936
7.936
7.904
7.956
7.92
7.908
7.916
7.92
7.96
7.916
7.884
7.948
7.952
7.94
7.912
7.944
7.96
7.948
7.908
7.92
7.94
7.948
7.96
7.98
8.02
8.032
7.996
7.972
7.996
8.04
8.052
8.02
8.08
8.052
8.012
7.976
8
7.992
7.988
7.96
7.968
7.972
7.932
7.884
7.912
7.932
7.896
7.872
7.892
7.92
7.912
7.884
7.88
7.928
7.924
7.856
7.756
7.748
7.824
8.044
8.464
9.044
9.708
10.276
10.288
9.792
9.224
8.68
8.1
7.772
7.808
7.912
7.956
8.004
8.064
8.06
8.02
8.016
8.044
8.044
8.012
7.988
8.032
8.036
8.016
8.024
8.052
8.036
8.02
8.02
8.028
8.076
8.036
8.028
8.056
8.092
8.072
8.056
8.092
8.112
8.104
8.08
8.1
8.156
8.148
8.104
8.12
8.168
8.18
8.164
8.184
8.188
8.232
8.236
8.212
8.244
8.284
8.288
8.316
8.328
8.376
8.4
8.42
8.46
8.496
8.516
8.516
8.58
8.668
8.692
8.708
8.72
8.8
8.856
8.868
8.892
8.948
8.976
8.984
8.98
9.012
8.984
8.96
8.892
8.88
8.84
8.764
8.672
8.604
8.556
8.48
8.38
8.316
8.276
8.248
8.18
8.148
8.144
8.084
8.096
8.052
8.072
8.06
8.02
7.996
8.02
8.044
8
7.98
8.016
8.036
8.008
7.976
8.004
8.012
8.016
8
8.012
8.024
8.032
7.992
8.028
8.024
8.04
8.008
8.016
8.032
8.064
8.036
8.036
8.044
8.068
8.032
8.008
8.044
8.036
8.032
8.024
8.036
8.044
8.04
8.008
7.996
8.048
8.032
8.008
7.976
8.032
8.032
8.004
7.996
8.028
8.032
8.004
7.984
8.008
8.008
7.976
7.988
8.008
8.016
7.996
7.956
7.992
8.024
8.012
7.96
7.956
8.016
8.024
7.984
7.972
8.016
8.008
8.008
7.972
8.004
8.008
7.988
7.972
8
8.012
7.964
7.98
7.976
8.012
8.004
7.96
7.984
7.992
7.992
7.96
7.964
7.988
7.976
7.96
7.968
7.968
7.992
7.98
7.964
7.984
7.988
7.984
7.968
8.008
8
7.98
7.936
7.984
8.036
8.08
8.048
8.072
8.068
8.04
8.024
8.092
8.14
8.156
8.104
8.06
8.108
8.08
8.024
7.996
8.032
8.036
8.02
7.98
7.976
7.992
7.94
7.928
7.936
7.96
7.948
7.924
7.932
7.984
7.96
7.944
7.912
7.904
7.82
7.8
7.904
8.24
8.704
9.268
9.96
10.412
10.232
9.6
9.036
8.52
8.024
7.8
7.888
7.996
8.072
8.072
8.064
8.056
8.092
8.068
8.024
8.036
8.052
8.064
8.048
8.028
8.064
8.06
8.036
8.028
8.08
8.08
8.064
8.052
8.092
8.104
8.088
8.068
8.092
8.108
8.12
8.096
8.104
8.136
8.148
8.12
8.144
8.176
8.164
8.152
8.192
8.212
8.22
8.192
8.216
8.272
8.324
8.288
8.292
8.328
8.336
8.38
8.388
8.428
8.464
8.5
8.524
8.564
8.62
8.672
8.652
8.7
8.764
8.8
8.82
8.84
8.932
8.964
8.968
8.976
9.012
9.044
9.036
9.024
9
8.972
8.908
8.836
8.8
8.736
8.64
8.536
8.488
8.428
8.368
8.264
8.228
8.22
8.18
8.132
8.088
8.096
8.096
8.052
8.024
8.036
8.072
8.02
8.02
8.028
8.06
8.036
8.012
8.016
8.052
8.028
8.02
8.024
8.04
8.052
8.016
8.024
8.056
8.036
8.028
8.028
8.056
8.04
8.012
8.012
8.032
8.052
8.016
8.008
8.02
8.068
8.004
7.98
8.008
8.044
8.048
8.02
8.016
8.036
8.024
7.988
7.992
8.028
8.02
7.972
7.992
8.024
8.024
7.98
7.976
8.004
8.028
7.996
7.956
8
8.004
7.992
7.948
7.988
7.992
7.984
7.952
7.98
8.012
7.988
7.936
7.952
8.016
8.008
7.944
7.932
7.996
7.996
7.98
7.956
7.98
8.004
7.964
7.972
7.984
7.976
7.96
7.968
7.972
7.992
7.992
7.94
7.948
8
7.996
7.956
7.948
7.992
7.984
7.964
7.956
7.98
7.976
7.956
7.968
7.976
7.988
7.96
7.948
7.956
7.992
7.988
7.952
7.964
7.996
7.98
7.936
7.952
8
7.992
7.94
7.956
7.968
7.984
7.952
7.964
8
7.992
7.952
7.956
8.008
8
7.964
7.952
7.98
7.996
7.988
7.952
7.968
7.968
7.976
7.964
7.96
8.004
7.988
7.956
7.972
8.008
8
7.972
7.952
8.004
8
7.968
7.948
7.988
8.02
7.988
7.98
7.968
8.004
7.972
7.98
7.984
8
7.972
7.976
8.012
8.076
8.096
8.072
8.044
8.056
8.068
8.076
8.128
8.124
8.14
8.052
8.064
8.076
8.06
8.016
8.008
8.04
8.036
8
7.948
7.976
7.976
7.928
7.92
7.928
7.988
7.988
7.94
7.924
7.972
7.992
7.924
7.844
7.796
7.876
7.996
8.376
8.928
9.588
10.22
10.388
9.996
9.424
8.848
8.308
7.9
7.9
7.984
8.028
8.064
8.112
8.108
8.084
8.06
8.072
8.084
8.056
8.032
8.076
8.096
8.04
8.048
8.06
8.12
8.076
8.036
8.068
8.1
8.08
8.084
8.092
8.12
8.096
8.088
8.116
8.14
8.148
8.12
8.14
8.188
8.184
8.132
8.136
8.22
8.22
8.204
8.188
8.224
8.256
8.26
8.26
8.284
8.304
8.316
8.32
8.372
8.4
8.384
8.416
8.436
8.512
8.536
8.552
8.584
8.648
8.692
8.7
8.736
8.808
8.848
8.836
8.872
8.932
9.004
8.98
9
9.06
9.08
9.048
9.028
9.016
9.004
8.94
8.84
8.8
8.736
8.676
8.564
8.492
8.44
8.384
8.312
8.264
8.24
8.2
8.164
8.1
8.12
8.132
8.052
8.032
8.068
8.092
8.06
8.004
8.048
8.048
8.052
8.032
8.028
8.04
8.068
8.036
8.02
8.068
8.068
8.056
8.024
8.064
8.096
8.048
8.02
8.056
8.072
8.032
8.024
8.052
8.056
8.056
8.012
8.044
8.084
8.052
8.016
8.036
8.04
8.06
8.016
8.008
8.064
8.052
8.02
8.012
8.044
8.048
8.02
7.992
8.016
8.036
8.008
8.012
8.032
8.044
8.012
7.992
8.016
8.044
8.004
7.952
7.988
8.028
8.016
7.98
7.964
8.008
8.02
7.988
7.98
8.012
8.02
7.98
7.976
7.996
8.02
7.964
7.96
8.008
8.024
7.98
7.98
7.984
8.02
8.016
7.976
7.992
7.996
7.984
7.96
7.98
8
7.972
7.968
7.992
8.012
8.012
7.964
7.968
8
8.02
7.992
7.972
7.988
7.996
7.968
7.976
7.968
8.004
7.98
7.98
7.988
7.992
7.976
7.972
7.968
8.012
7.996
7.968
7.952
8.008
8.012
7.976
7.948
8.012
8.016
7.976
7.964
7.98
8.012
7.972
7.972
7.98
8.012
7.968
7.964
7.98
8.024
8.016
7.972
7.956
7.996
8.004
7.984
7.976
8.004
8.008
7.984
7.984
8.02
8.024
7.968
7.984
8.028
8.06
8.052
8.056
8.1
8.092
8.048
8.024
8.112
8.18
8.156
8.1
8.036
8.092
8.048
8.024
8.004
8.028
8.02
7.976
7.98
7.992
7.972
7.92
7.924
7.948
7.956
7.924
7.916
7.964
7.964
7.964
7.944
7.884
7.824
7.776
7.832
8.064
8.508
9.052
9.664
10.284
10.4
9.852
9.24
8.708
8.184
7.864
7.86
7.932
8.06
8.096
8.096
8.084
8.092
8.08
8.02
8.024
8.04
8.076
8.028
8
8.032
8.084
8.052
8.04
8.04
8.084
8.092
8.052
8.052
8.084
8.108
8.084
8.08
8.108
8.108
8.092
8.1
8.132
8.144
8.12
8.104
8.168
8.188
8.168
8.16
8.172
8.196
8.22
8.196
8.196
8.224
8.284
8.252
8.292
8.336
8.356
8.34
8.344
8.44
8.468
8.476
8.492
8.556
8.624
8.628
8.604
8.72
8.764
8.8
8.808
8.84
8.912
8.932
8.932
9.008
9.04
9.044
9.02
9
9.02
9.008
8.932
8.852
8.816
8.764
8.664
8.572
8.528
8.464
8.384
8.292
8.268
8.24
8.176
8.12
8.096
8.112
8.076
8.028
8.016
8.06
8.048
8.008
7.996
7.988
8.012
7.964
7.988
8.024
8.024
7.992
7.992
8.008
8.008
7.992
7.964
7.992
8.024
8.004
7.996
7.992
8.012
8.036
7.988
7.964
8.016
8.024
8
7.992
8.012
8.02
7.996
8.012
8
8.012
7.976
7.98
8.004
8.008
7.996
7.976
7.976
8.004
7.988
7.944
7.976
8.004
8
7.98
7.952
8
8
7.964
7.964
7.976
7.992
7.96
7.976
7.96
7.984
7.964
7.944
7.964
7.972
7.968
7.964
7.948
7.98
7.964
7.972
7.96
7.98
7.972
7.94
7.94
7.988
7.976
7.936
7.948
7.968
7.988
7.944
7.944
7.952
7.984
7.96
7.96
7.96
7.964
7.972
7.964
7.956
7.98
7.972
7.932
7.932
7.984
7.968
7.944
7.94
7.964
8
7.944
7.936
7.968
7.976
7.96
7.956
7.968
7.968
7.964
7.952
7.96
7.968
7.952
7.936
7.944
7.992
7.964
7.94
7.94
7.976
7.976
7.948
7.948
7.98
7.98
7.976
7.956
7.988
8
7.976
7.948
7.988
7.98
7.928
7.96
7.94
8.008
8.028
8.016
8.016
8.056
8.064
8.032
8.012
8.084
8.132
8.1
8.092
8.08
8.084
8.04
7.996
8.016
8.044
8.008
7.988
7.992
7.984
7.944
7.92
7.94
7.952
7.952
7.916
7.944
7.952
7.944
7.936
7.928
7.928
7.84
7.728
7.78
7.984
8.376
8.848
9.484
10.164
10.376
9.968
9.372
8.876
8.356
7.888
7.804
7.896
7.996
8.036
8.064
8.072
8.1
8.068
8.032
8.016
8.064
8.036
8.036
8.012
8.052
8.088
8.032
8.056
8.08
8.068
8.056
8.036
8.084
8.1
8.084
8.076
8.1
8.116
8.112
8.088
8.096
8.152
8.128
8.124
8.108
8.16
8.18
8.164
8.16
8.176
8.204
8.2
8.224
8.236
8.26
8.24
8.252
8.324
8.352
8.344
8.36
8.388
8.46
8.48
8.492
8.536
8.56
8.608
8.66
8.68
8.732
8.78
8.8
8.844
8.92
8.948
8.932
8.964
9.048
9.084
9.072
9.048
9.076
9.08
9.024
8.98
8.92
8.872
8.804
8.692
8.636
8.572
8.504
8.384
8.312
8.296
8.244
8.18
8.152
8.14
8.128
8.064
8.048
8.056
8.06
8.052
8.028
8.044
8.036
8.008
8.008
8.016
8.044
8.016
8.012
8.016
8.056
8.04
8.02
7.992
8.052
8.052
8.02
8.008
8.048
8.068
8.028
8.012
8.032
8.048
8.024
8.024
8.052
8.008
8.028
8.012
8.032
8.052
8.032
8
8.008
8.036
8.032
8.008
7.988
8.036
8.032
7.996
7.972
8.024
8.016
7.984
7.98
8.008
8.012
7.98
7.972
7.976
8.004
8
7.976
7.984
8
8.012
7.976
7.948
8
7.98
7.98
7.988
7.98
8
7.964
7.972
7.992
7.988
7.972
7.928
8
8.028
7.98
7.976
7.984
7.996
7.976
7.964
7.988
7.98
7.98
7.98
7.976
7.996
7.992
7.956
7.964
8.004
7.992
7.96
7.964
7.988
7.996
7.956
7.964
7.972
7.988
7.976
7.956
7.972
7.98
7.964
7.98
8.024
8.052
8.064
8.032
8.028
8.044
8.072
8.076
8.092
8.104
8.116
8.052
8.04
8.048
8.008
8
8.012
8.008
8.016
7.968
7.944
7.96
7.928
7.92
7.888
7.944
7.96
7.928
7.908
7.952
7.932
7.968
7.916
7.844
7.784
7.832
7.892
8.276
8.772
9.324
10.064
10.38
10.172
9.56
9.008
8.476
7.976
7.836
7.916
7.988
8.052
8.08
8.096
8.06
8.052
8.072
8.076
8.024
8.052
8.052
8.04
8.028
8.036
8.052
8.1
8.056
8.06
8.064
8.096
8.072
8.084
8.1
8.092
8.104
8.084
8.112
8.124
8.112
8.108
8.14
8.18
8.172
8.14
8.156
8.196
8.192
8.18
8.168
8.236
8.264
8.216
8.228
8.268
8.288
8.268
8.316
8.34
8.368
8.4
8.412
8.436
8.516
8.516
8.548
8.568
8.636
8.664
8.696
8.724
8.768
8.844
8.86
8.876
8.964
8.984
8.984
9.012
9.044
9.068
9.004
8.988
8.968
8.952
8.864
8.792
8.72
8.66
8.596
8.496
8.412
8.376
8.324
8.244
8.196
8.176
8.156
8.092
8.076
8.08
8.064
8.016
8.02
8.036
8.052
8.016
8.012
8.016
8.044
8.036
8.008
8
8.036
8.032
8.02
8.024
8.04
8.068
8.028
8.048
8.064
8.068
8.024
8.032
8.064
8.084
8.048
8.016
8.064
8.064
8.052
8.06
8.064
8.056
8.036
8.04
8.056
8.06
8.036
8.016
8.036
8.056
8.036
8.016
8
8.044
8.044
8.008
7.996
8.028
8.036
7.984
8.004
8.02
8.024
7.988
8.008
8.024
8.028
7.98
7.98
7.992
8.028
8.016
7.968
8
8
8.028
7.996
7.996
7.996
8.02
7.976
8.012
8.016
8.004
8
7.976
8.028
8.024
7.992
7.96
7.992
8.012
7.996
7.976
7.988
8.008
8.02
7.98
7.988
8.008
8.02
7.992
7.98
8.012
8
7.976
7.964
7.988
8.032
7.98
7.972
8.016
8.016
8.008
7.988
7.98
7.992
8.008
8
7.984
8.02
8.02
7.968
7.992
8.004
7.992
7.98
7.988
8.016
8.072
8.044
8.06
8.128
8.12
8.056
8.048
8.108
8.192
8.16
8.132
8.116
8.1
8.06
8.04
8.024
8.06
8.044
7.992
8.008
8.008
8
7.944
7.94
7.96
7.996
7.968
7.928
7.984
7.98
7.956
7.968
7.984
7.932
7.816
7.784
7.912
8.164
8.576
9.1
9.796
10.38
10.34
9.74
9.188
8.668
8.124
7.816
7.896
8.004
8.076
8.076
8.088
8.104
8.104
8.06
8.052
8.064
8.064
8.052
8.044
8.076
8.1
8.096
8.06
8.084
8.088
8.1
8.056
8.084
8.124
8.12
8.08
8.084
8.12
8.128
8.108
8.104
8.144
8.16
8.14
8.136
8.168
8.192
8.18
8.172
8.188
8.228
8.228
8.224
8.26
8.264
8.276
8.276
8.288
8.364
8.376
8.352
8.388
8.448
8.492
8.46
8.492
8.568
8.616
8.628
8.664
8.704
8.772
8.804
8.828
8.868
8.928
8.94
8.964
9.008
9.064
9.064
9.056
9.024
9.044
9.024
8.96
8.912
8.856
8.784
8.7
8.616
8.572
8.504
8.384
8.332
8.316
8.276
8.196
8.14
8.148
8.156
8.108
8.056
8.076
8.068
8.084
8.032
8.036
8.052
8.044
8.02
8.036
8.052
8.036
8.004
8.02
8.048
8.076
8.048
8.028
8.056
8.068
8.048
8.036
8.052
8.08
8.048
8.048
8.048
8.056
8.056
8.012
8.032
8.076
8.056
8.016
8.044
8.072
8.044
8.032
8.024
8.04
8.052
8.036
8.016
8.036
8.032
8.032
8.004
8.048
8.048
8.012
7.996
8.024
8.048
8.028
7.988
8.012
8.032
8.036
7.996
8.008
8.016
8.056
8.004
8.004
8
8.028
8.004
7.98
8.008
8.004
7.992
7.988
8.012
8.024
7.996
7.984
7.992
8.036
8.032
7.988
7.98
8.02
8.044
7.976
8.008
8.008
8.024
7.968
7.968
8.016
8.016
7.992
7.972
8.024
8.012
7.992
7.96
7.992
8.012
7.996
7.964
7.988
8.028
8.008
7.996
8
8.004
8.02
7.968
8.012
8.004
8.032
7.98
7.964
8.004
8.024
8
7.968
8.012
8.028
7.992
7.96
7.992
8.016
8.012
7.984
7.988
8.004
8.008
7.964
8
8.008
8.008
7.98
7.956
8.008
8.028
7.984
7.988
7.992
8
7.98
7.968
7.996
7.996
7.988
7.96
8
7.992
8
7.96
7.996
7.996
8.012
8.008
8.024
8.076
8.124
8.044
8.012
8.044
8.12
8.136
8.128
8.108
8.084
8.064
8.032
8.016
8.036
8.008
7.996
8.008
7.988
7.972
7.92
7.92
7.936
7.944
7.9
7.92
7.948
7.956
7.908
7.916
7.924
7.912
7.768
7.744
7.856
8.08
8.432
9
9.676
10.292
10.332
9.8
9.24
8.732
8.2
7.804
7.832
7.952
8.024
8.02
8.064
8.08
8.08
8.012
8.008
8.064
8.044
7.992
7.996
8.048
8.076
8.036
8.012
8.048
8.068
8.068
8.052
8.068
8.072
8.06
8.04
8.068
8.076
8.072
8.072
8.084
8.116
8.096
8.096
8.1
8.136
8.16
8.128
8.128
8.18
8.184
8.168
8.16
8.196
8.236
8.228
8.224
8.284
8.296
8.304
8.3
8.34
8.38
8.42
8.42
8.444
8.484
8.552
8.556
8.616
8.66
8.692
8.712
8.748
8.808
8.88
8.876
8.9
8.968
8.996
8.996
8.992
9.032
9.04
9.008
8.932
8.916
8.9
8.824
8.728
8.648
8.604
8.524
8.432
8.36
8.308
8.252
8.176
8.116
8.128
8.104
8.036
8
8.02
8.036
7.992
7.98
7.988
8.004
8.004
7.964
7.968
8.012
7.98
7.936
7.96
8.012
7.98
7.964
7.968
8.004
8.028
7.984
7.976
7.992
8.024
7.996
7.972
8.004
8.012
7.984
7.96
8
8
7.98
7.968
7.996
8.008
7.984
7.928
7.94
7.988
7.98
7.96
7.936
7.964
7.976
7.944
7.944
7.972
7.956
7.96
7.936
7.948
7.98
7.948
7.908
7.952
7.964
7.94
7.916
7.94
7.956
7.952
7.924
7.908
7.932
7.96
7.944
7.912
7.928
7.936
7.904
7.928
7.96
7.964
7.916
7.912
7.956
7.96
7.932
7.912
7.916
7.96
7.928
7.916
7.924
7.936
7.948
7.896
7.912
7.924
7.924
7.904
7.892
7.924
7.92
7.888
7.908
7.956
7.952
7.9
7.9
7.928
7.936
7.904
7.896
7.908
7.932
7.936
7.916
7.96
7.996
7.996
7.98
7.984
7.976
7.976
8.02
8.024
8.068
8.068
7.992
7.996
7.996
7.98
7.948
7.936
7.972
7.964
7.916
7.924
7.924
7.924
7.868
7.864
7.876
7.916
7.924
7.876
7.876
7.916
7.944
7.856
7.748
7.704
7.788
7.928
8.28
8.84
9.476
10.112
10.312
9.984
9.384
8.868
8.308
7.864
7.772
7.844
7.892
7.984
8.048
8.064
8.02
8.004
8.02
8.02
8
7.992
8.02
8.004
7.996
7.992
8.036
8.04
8.02
7.976
8.028
8.048
8.032
8.008
8.032
8.064
8.064
8.044
8.064
8.104
8.092
8.088
8.092
8.132
8.112
8.108
8.124
8.16
8.152
8.16
8.136
8.184
8.232
8.212
8.204
8.256
8.272
8.296
8.276
8.324
8.368
8.392
8.388
8.44
8.488
8.532
8.52
8.56
8.644
8.7
8.684
8.72
8.776
8.848
8.84
8.868
8.944
8.984
8.972
8.988
9.032
9.032
8.988
8.948
8.936
8.916
8.828
8.72
8.648
8.624
8.54
8.432
8.372
8.336
8.28
8.224
8.168
8.168
8.128
8.096
8.048
8.076
8.072
8.04
8.004
8.068
8.068
8.032
8.008
8.032
8.072
8.04
8.016
8.032
8.056
8.044
7.992
8.032
8.056
8.048
8.028
8.04
8.048
8.064
8.04
8.012
8.064
8.076
8.032
8.024
8.04
8.052
8.028
8
8.028
8.06
8.028
8.012
8.016
8.032
8.04
8.008
8.012
8.06
8.048
7.996
7.988
8.04
8.056
8.004
7.992
8.004
8.036
8.012
7.984
8.016
8.004
8.004
7.968
8.004
8.032
7.98
7.976
7.996
8.036
7.984
7.964
7.972
7.996
8.008
7.976
7.968
7.98
8.012
7.992
7.96
7.98
8
7.98
7.952
8.004
8.012
7.984
7.944
7.988
8.008
7.984
7.956
7.964
8.012
8.02
7.96
7.976
7.992
8
7.968
7.976
8.008
8.016
8.008
8.012
8.088
8.1
8.084
8.052
8.072
8.08
8.1
8.108
8.116
8.12
8.096
8.048
8.048
8.044
8.04
8.008
8.04
8.024
7.996
7.988
7.96
7.98
7.968
7.904
7.912
7.972
7.98
7.964
7.928
7.972
7.996
7.936
7.836
7.784
7.852
7.972
8.272
8.76
9.36
10.06
10.392
10.1
9.548
9.008
8.432
7.936
7.828
7.956
7.996
8.06
8.12
8.108
8.068
8.036
8.072
8.068
8.028
8.028
8.064
8.072
8.064
8.016
8.044
8.068
8.076
8.028
8.028
8.076
8.08
8.08
8.056
8.08
8.088
8.092
8.088
8.132
8.112
8.104
8.084
8.152
8.172
8.152
8.14
8.164
8.2
8.2
8.176
8.208
8.244
8.236
8.248
8.256
8.292
8.316
8.324
8.332
8.376
8.408
8.408
8.44
8.512
8.552
8.552
8.556
8.636
8.708
8.708
8.748
8.8
8.848
8.884
8.896
8.932
8.992
9.008
8.98
9.02
9.06
9.036
8.968
8.924
8.908
8.86
8.732
8.648
8.604
8.564
8.468
8.368
8.344
8.304
8.24
8.18
8.192
8.152
8.092
8.056
8.076
8.08
8.072
8.008
8.008
8.06
8.044
8
7.996
8.044
8.044
8.02
8
8.052
8.036
8.032
8.012
8.044
8.044
8.028
8.008
8.052
8.064
8.056
8.008
8.036
8.048
8.052
8.02
8.024
8.06
8.036
8.036
8.02
8.052
8.06
7.988
8.008
8.028
8.04
8.012
7.988
8.016
8.044
8.016
7.976
8.024
8.036
8.02
7.976
7.996
8.024
8.012
7.992
7.972
8.004
8.004
7.956
7.976
8.02
7.988
7.98
7.976
8.004
8
7.976
7.936
7.996
8.004
7.992
7.96
7.988
8.012
7.992
7.96
7.976
8.012
8.008
7.952
7.976
7.976
7.996
7.968
7.924
7.984
8.004
7.976
7.948
7.988
8
7.976
7.956
7.98
8
7.936
7.956
7.968
7.996
7.984
7.952
7.948
8.012
8.016
7.936
7.944
8
8.004
7.956
7.948
7.992
8.012
7.972
7.972
8.008
8
7.976
7.996
8.008
8.044
8.004
7.992
8.004
8.032
8.012
7.992
8
8.02
8.012
7.992
8.004
8.032
8.016
7.992
7.988
8.012
8.028
7.976
7.952
8.008
8.028
8.008
7.964
8.012
8.024
8.008
7.984
8.016
8.008
8.024
8
7.972
8.028
8
8
8
8.036
8.02
7.972
8
8.044
8.076
8.04
8.068
8.128
8.132
8.076
8.044
8.124
8.152
8.16
8.14
8.108
8.12
8.104
8.032
8.02
8.08
8.056
8.04
8.012
8.052
8.004
7.956
7.96
7.984
8.016
7.972
7.948
7.992
8.012
7.992
7.972
7.984
7.904
7.808
7.84
8.032
8.4
8.872
9.464
10.192
10.504
10.1
9.468
8.928
8.404
7.976
7.9
7.968
8.088
8.14
8.136
8.088
8.144
8.12
8.088
8.056
8.1
8.112
8.084
8.048
8.096
8.128
8.128
8.08
8.092
8.116
8.12
8.108
8.084
8.152
8.148
8.112
8.112
8.172
8.164
8.124
8.14
8.188
8.208
8.148
8.164
8.176
8.224
8.232
8.212
8.22
8.244
8.256
8.248
8.28
8.32
8.316
8.308
8.316
8.376
8.412
8.388
8.408
8.492
8.524
8.5
8.52
8.588
8.644
8.676
8.668
8.74
8.812
8.832
8.84
8.916
8.956
8.988
8.98
9.048
9.112
9.072
9.064
9.056
9.108
9.056
9
8.952
8.908
8.844
8.752
8.644
8.608
8.556
8.476
8.376
8.376
8.316
8.236
8.204
8.176
8.208
8.136
8.108
8.108
8.12
8.132
8.088
8.064
8.104
8.092
8.06
8.076
8.08
8.1
8.068
8.056
8.08
8.092
8.08
8.036
8.096
8.112
8.088
8.04
8.072
8.104
8.104
8.064
8.068
8.096
8.1
8.092
8.072
8.108
8.104
8.076
8.052
8.112
8.108
8.052
8.04
8.084
8.104
8.072
8.024
8.068
8.084
8.072
8.044
8.06
8.088
8.056
8.012
8.052
8.072
8.056
8.028
8.02
8.06
8.056
8.04
8.024
8.044
8.048
8.044
8.008
8.044
8.036
8.024
8.016
8.028
8.056
8.012
8.02
8.024
8.06
8.048
7.996
7.996
8.036
8.02
7.996
7.964
8.044
8.04
8.012
7.992
8.04
8.044
8.008
7.992
8.02
8.04
8.008
7.984
8.032
8.024
8.008
7.992
8.004
8.012
8.02
7.988
8.004
8.024
8.02
7.992
7.984
8.032
8.012
7.988
7.984
8.02
8.044
7.988
7.952
8.004
8.028
8.004
7.964
7.984
8.02
8.008
7.972
7.996
8.032
8.012
7.98
7.964
8.036
8.012
7.98
7.972
8.04
8.02
7.972
7.992
8.036
8.02
7.972
7.976
8.012
8.032
8.02
7.952
7.992
8.024
8.008
7.984
7.988
8.02
8.024
7.972
7.976
8.012
8.02
8.024
8.012
8.088
8.096
8.084
8.032
8.076
8.124
8.128
8.116
8.156
8.136
8.068
8.044
8.06
8.08
8.04
8.008
8.036
8.036
8.012
7.944
7.948
7.968
7.98
7.952
7.936
7.984
7.992
7.94
7.944
7.96
7.972
7.884
7.788
7.824
7.916
8.176
8.624
9.276
9.992
10.38
10.208
9.64
9.16
8.632
8.024
7.82
7.904
8.004
8.048
8.072
8.104
8.116
8.068
8.072
8.08
8.064
8.044
8.048
8.076
8.104
8.068
8.052
8.052
8.1
8.088
8.056
8.06
8.116
8.1
8.08
8.084
8.132
8.116
8.064
8.104
8.156
8.152
8.14
8.116
8.172
8.212
8.168
8.148
8.204
8.224
8.208
8.196
8.236
8.268
8.264
8.244
8.28
8.336
8.348
8.344
8.364
8.44
8.444
8.428
8.46
8.544
8.584
8.584
8.604
8.668
8.74
8.752
8.78
8.844
8.88
8.904
8.924
8.98
9.036
9.048
9.032
9.064
9.12
9.1
9.032
9.012
8.988
8.932
8.824
8.748
8.724
8.608
8.528
8.44
8.388
8.356
8.268
8.192
8.208
8.188
8.096
8.06
8.076
8.1
8.064
8.02
8.028
8.06
8.06
8.032
8.012
8.06
8.044
8.032
8.028
8.06
8.044
8.008
8.008
8.068
8.056
8.028
7.996
8.052
8.076
8.024
8.012
8.024
8.052
8.048
8.024
8.028
8.068
8.044
8.02
8.024
8.02
8.048
7.996
8
8.04
8.068
8.016
7.996
8.012
8.048
8
7.972
7.992
8.028
7.996
7.98
7.988
8.016
8
7.964
7.984
8.032
8.008
7.96
7.94
8.02
8
7.972
7.948
7.992
8
7.968
7.968
7.984
7.996
7.968
7.96
7.972
7.988
7.976
7.94
7.992
8
7.976
7.944
7.928
8
8
7.964
7.96
8.004
8.008
7.972
7.936
7.996
7.98
7.964
7.952
7.996
8.004
7.952
7.952
8.004
8.008
7.952
7.952
7.972
8.012
8.012
7.984
8.004
8.052
8.06
8.048
8.02
8.048
8.056
8.064
8.1
8.136
8.104
8.052
8.012
8.056
8.02
7.988
7.972
8
8.004
7.992
7.932
7.94
7.956
7.94
7.92
7.928
7.956
7.932
7.912
7.936
7.952
7.952
7.864
7.748
7.752
7.852
7.972
8.336
8.944
9.608
10.204
10.348
9.928
9.388
8.84
8.284
7.852
7.812
7.884
7.968
8.028
8.096
8.076
8.04
8.032
8.072
8.08
8.016
8.02
8.048
8.048
8.044
8.04
8.06
8.08
8.068
8.04
8.084
8.1
8.052
8.028
8.076
8.136
8.108
8.056
8.068
8.128
8.14
8.104
8.112
8.164
8.176
8.152
8.144
8.172
8.188
8.188
8.152
8.24
8.244
8.24
8.224
8.284
8.312
8.308
8.292
8.344
8.388
8.4
8.408
8.444
8.512
8.52
8.572
8.608
8.676
8.7
8.716
8.728
8.832
8.864
8.876
8.88
8.96
9.004
9.02
8.992
9.044
9.052
9.016
8.988
8.952
8.94
8.836
8.756
8.696
8.648
8.544
8.428
8.388
8.36
8.296
8.22
8.148
8.188
8.164
8.132
8.076
8.084
8.104
8.06
8.024
8.04
8.088
8.048
8.02
8.04
8.048
8.052
8.024
8.044
8.06
8.064
8.024
8.048
8.056
8.088
8.064
8.044
8.088
8.08
8.056
8.032
8.064
8.072
8.06
8.016
8.068
8.1
8.052
8.016
8.048
8.088
8.068
8.02
8.036
8.072
8.08
8.056
8.044
8.08
8.068
8.044
8.048
8.076
8.08
8.044
8.016
8.08
8.076
8.04
8.016
8.048
8.064
8.056
8.012
8.016
8.048
8.032
8.016
8.028
8.06
8.056
8.024
8.024
8.068
8.048
8.032
8.016
8.04
8.06
8.028
8.024
8.02
8.072
8.04
8.012
8.024
8.056
8.048
8.032
8.036
8.064
8.036
8.024
8.036
8.076
8.044
8.012
8.008
8.04
8.072
8.016
7.988
8.056
8.028
8.048
8.024
8.044
8.052
8.044
8.02
8.052
8.072
8.028
8.008
8.056
8.072
8.04
8.012
8.04
8.072
8.04
8.024
8.028
8.06
8.06
8.028
8.008
8.044
8.072
8.04
8.044
8.04
8.076
8.036
8.036
8.044
8.08
8.04
8.012
8.044
8.068
8.056
8.024
8.04
8.052
8.06
8.028
8.04
8.08
8.044
8.06
8.076
8.12
8.152
8.128
8.12
8.132
8.152
8.152
8.188
8.188
8.216
8.164
8.128
8.124
8.096
8.08
8.072
8.08
8.084
8.08
8.044
8.028
8.048
8.016
7.988
7.98
8.02
8.032
7.992
7.988
8.024
8.044
7.988
7.896
7.828
7.924
8.036
8.356
8.884
9.52
10.2
10.464
10.092
9.548
8.988
8.416
7.98
7.936
8.056
8.096
8.112
8.188
8.172
8.14
8.096
8.128
8.144
8.08
8.088
8.128
8.148
8.12
8.084
8.096
8.14
8.128
8.1
8.104
8.156
8.148
8.128
8.124
8.168
8.16
8.16
8.14
8.172
8.188
8.192
8.192
8.22
8.232
8.212
8.192
8.232
8.272
8.26
8.244
8.256
8.324
8.3
8.296
8.308
8.356
8.384
8.36
8.396
8.456
8.464
8.464
8.48
8.552
8.612
8.612
8.636
8.668
8.74
8.76
8.808
8.848
8.884
8.936
8.936
8.996
9.048
9.072
9.08
9.116
9.124
9.108
9.072
9.04
9.04
8.988
8.896
8.808
8.764
8.712
8.64
8.52
8.484
8.444
8.38
8.3
8.268
8.252
8.188
8.16
8.16
8.176
8.148
8.104
8.1
8.144
8.112
8.088
8.08
8.108
8.112
8.088
8.08
8.1
8.116
8.08
8.096
8.136
8.144
8.096
8.08
8.128
8.124
8.104
8.072
8.096
8.14
8.116
8.096
8.088
8.108
8.104
8.108
8.1
8.12
8.108
8.072
8.072
8.076
8.128
8.072
8.064
8.1
8.124
8.068
8.048
8.072
8.1
8.084
8.056
8.064
8.104
8.056
8.052
8.068
8.092
8.064
8.052
8.04
8.068
8.072
8.048
8.02
8.068
8.084
8.04
8.032
8.064
8.064
8.044
8.036
8.052
8.08
8.04
8.052
8.048
8.088
8.056
8.028
8.04
8.076
8.068
8.032
8.024
8.06
8.096
8.044
8.012
8.024
8.064
8.044
8.024
8.06
8.064
8.032
8.028
8.044
8.06
8.036
8.024
8.036
8.072
8.032
8.012
8.016
8.068
8.06
8.032
8.016
8.052
8.084
8.048
8.02
8.036
8.06
8.024
8.008
8.06
8.08
8.052
8.004
8.032
8.068
8.044
8.024
8.032
8.06
8.048
8.048
8.024
8.032
8.044
8.028
8.028
8.048
8.056
8.012
8.02
8.056
8.06
8.036
8.016
8.032
8.068
8.036
8.008
8.012
8.052
8.056
8.02
8.032
8.052
8.036
8.02
8.036
8.06
8.056
8.016
8.012
8.1
8.12
8.088
8.084
8.136
8.132
8.1
8.108
8.168
8.204
8.18
8.132
8.144
8.124
8.104
8.056
8.096
8.112
8.072
8.012
8.032
8.036
8.032
7.984
7.972
7.984
7.988
7.98
7.964
7.996
8.008
7.984
7.968
7.94
7.864
7.8
7.892
8.168
8.632
9.156
9.792
10.364
10.408
9.824
9.2
8.688
8.18
7.88
7.916
8.016
8.092
8.144
8.116
8.128
8.12
8.12
8.08
8.08
8.104
8.108
8.08
8.064
8.092
8.116
8.104
8.08
8.08
8.124
8.128
8.096
8.116
8.116
8.144
8.088
8.116
8.16
8.16
8.136
8.136
8.18
8.204
8.156
8.148
8.18
8.232
8.212
8.212
8.244
8.256
8.268
8.256
8.292
8.296
8.308
8.308
8.336
8.38
8.412
8.38
8.4
8.476
8.536
8.524
8.528
8.572
8.66
8.644
8.668
8.736
8.82
8.824
8.844
8.904
8.952
8.964
8.988
9.024
9.06
9.076
9.072
9.056
9.056
9.028
8.976
8.928
8.872
8.816
8.712
8.624
8.572
8.504
8.416
8.328
8.32
8.28
8.2
8.148
8.156
8.164
8.096
8.06
8.072
8.056
8.068
8.04
8.04
8.048
8.056
8.032
8.032
8.044
8.04
8.024
8.02
8.052
8.044
8.036
8.032
8.048
8.08
8.044
8.004
8.032
8.064
8.076
8.048
8.032
8.08
8.044
8.056
8.036
8.068
8.044
8.028
8.024
8.052
8.06
8.008
8.024
8.02
8.056
8.024
7.992
8.016
8.024
7.988
8.004
8
8.02
8.012
7.996
8.012
8.02
8.012
7.996
8
8.032
8.024
7.976
7.996
8.012
8.028
8.008
7.98
7.988
8.004
7.992
7.988
8.004
8.012
7.984
7.968
7.996
8.008
8
7.952
7.996
8.016
8
7.98
7.988
8
8.004
7.992
7.964
7.972
7.976
7.976
7.972
7.984
8
7.988
7.96
7.988
8.024
7.976
7.964
7.996
8.012
7.992
7.968
7.98
8
7.984
7.964
7.98
7.984
8.012
7.944
7.992
8
8.012
7.96
7.936
7.984
8.032
7.972
7.964
7.988
8.02
7.992
7.948
7.988
7.996
7.996
7.972
7.996
7.98
7.992
7.952
7.992
8.008
7.988
7.968
7.96
8.016
8.028
7.98
7.968
7.984
8.012
7.992
7.972
8.024
8.064
8.076
8.048
8.036
8.068
8.056
8.08
8.128
8.124
8.088
8.032
8.056
8.024
8.048
7.988
7.992
8.008
8.016
7.98
7.956
7.944
7.948
7.952
7.94
7.968
7.992
7.952
7.944
7.952
8
7.948
7.824
7.772
7.808
7.94
8.216
8.688
9.316
10.024
10.336
10.156
9.568
9.064
8.512
7.996
7.816
7.876
7.96
8.008
8.084
8.112
8.088
8.06
8.068
8.088
8.088
8.056
8.044
8.068
8.076
8.032
8.044
8.064
8.096
8.056
8.08
8.092
8.092
8.08
8.08
8.108
8.116
8.12
8.104
8.108
8.136
8.132
8.128
8.152
8.176
8.172
8.148
8.2
8.22
8.176
8.188
8.216
8.24
8.268
8.244
8.256
8.312
8.352
8.344
8.332
8.364
8.396
8.424
8.444
8.464
8.544
8.552
8.568
8.656
8.692
8.696
8.736
8.788
8.856
8.904
8.896
8.936
8.964
9.016
9.036
9.056
9.08
9.096
9.06
9.032
9.004
8.98
8.9
8.8
8.78
8.728
8.608
8.512
8.44
8.38
8.336
8.264
8.224
8.184
8.156
8.112
8.092
8.084
8.072
8.028
8.04
8.072
8.084
8.04
8.016
8.072
8.084
8.056
8.016
8.068
8.088
8.052
8.024
8.072
8.088
8.052
8.032
8.04
8.052
8.06
8.044
8.068
8.068
8.076
8.02
8.044
8.064
8.072
8.024
7.996
8.048
8.048
8.02
8.024
8.036
8.036
8.016
8.012
8.032
8.036
8.028
8.016
8.02
8.032
8.036
8
7.992
8.02
8.024
7.996
8.012
8.016
8.028
8.012
8.004
7.996
8.012
7.992
7.988
8.012
8.004
8
7.984
8.004
8.024
8.008
7.984
8.012
8.028
8.004
7.976
7.996
7.996
8.028
7.988
7.984
7.992
8.02
7.98
7.992
8
8.004
7.972
7.984
8.02
8.016
7.992
7.956
7.992
8.012
7.992
7.976
8.008
7.988
8
7.964
8.02
8.016
8.076
8.064
8.084
8.116
8.076
8.044
8.068
8.14
8.172
8.14
8.076
8.108
8.096
8.056
8.008
8.048
8.056
8.02
8.016
8.032
8.004
7.964
7.928
7.964
7.976
7.988
7.92
7.932
7.972
7.996
7.96
7.96
7.936
7.864
7.804
7.896
8.112
8.528
9.052
9.704
10.328
10.38
9.848
9.248
8.744
8.212
7.852
7.828
7.956
8.04
8.108
8.104
8.088
8.076
8.104
8.044
8.056
8.084
8.084
8.076
8.048
8.104
8.1
8.064
8.048
8.08
8.12
8.096
8.064
8.084
8.084
8.124
8.12
8.112
8.108
8.112
8.12
8.128
8.164
8.164
8.132
8.132
8.208
8.188
8.176
8.192
8.224
8.248
8.224
8.228
8.244
8.308
8.3
8.288
8.332
8.36
8.364
8.392
8.424
8.476
8.492
8.492
8.532
8.588
8.648
8.648
8.68
8.744
8.792
8.808
8.848
8.892
8.948
8.976
8.98
9.048
9.064
9.044
9.032
9.032
9.04
8.98
8.9
8.86
8.808
8.716
8.616
8.548
8.488
8.448
8.348
8.288
8.256
8.212
8.18
8.14
8.152
8.112
8.072
8.048
8.088
8.088
8.056
8.04
8.052
8.06
8.088
8.044
8.032
8.044
8.076
8.052
8.032
8.084
8.048
8.064
8.048
8.076
8.08
8.072
8.052
8.076
8.092
8.06
8.052
8.068
8.084
8.056
8.068
8.08
8.076
8.084
8.048
8.06
8.06
8.084
8.024
8.052
8.084
8.076
8.048
8.032
8.068
8.044
8.044
8.024
8.04
8.064
8.048
8.024
8.028
8.044
8.052
8.036
8.024
8.04
8.028
8.012
8.036
8.04
8.036
8
8.004
8.06
8.036
8.012
8.004
8.036
8.048
8.028
8.008
8.02
8.016
8.028
8.012
8
8.024
8.024
7.992
8.004
8.036
8.016
8.004
7.988
8.04
8.036
8.016
7.98
8.02
8.036
8.012
7.984
8.016
8.012
7.996
8.004
8.02
8.036
8.016
8
8.032
8.032
8.02
8
8.024
8.016
8.032
8.016
8.032
8.012
8.004
8.02
8.008
8.02
8.008
7.98
7.996
8.028
8.004
8.012
7.988
8.028
8.02
8.004
7.98
8.008
8.02
8.012
7.98
8
8.016
8.004
8
8.004
8.008
8.02
7.996
7.996
8.076
8.068
8.068
8.096
8.12
8.096
8.088
8.096
8.168
8.156
8.152
8.092
8.116
8.096
8.028
8.012
8.052
8.052
8.024
7.98
7.988
8
7.996
7.952
7.936
7.98
8
7.964
7.924
7.952
7.992
7.98
7.924
7.872
7.808
7.836
7.924
8.312
8.824
9.36
10.04
10.428
10.148
9.524
8.948
8.436
7.956
7.852
7.928
8.004
8.072
8.104
8.084
8.092
8.084
8.068
8.044
8.036
8.044
8.068
8.044
8.032
8.072
8.08
8.076
8.028
8.052
8.076
8.084
8.06
8.06
8.084
8.104
8.076
8.088
8.112
8.112
8.1
8.108
8.116
8.16
8.132
8.128
8.148
8.184
8.164
8.168
8.184
8.22
8.224
8.232
8.236
8.26
8.284
8.288
8.308
8.352
8.376
8.344
8.404
8.464
8.48
8.476
8.516
8.576
8.636
8.66
8.676
8.736
8.768
8.8
8.84
8.904
8.924
8.964
8.944
9.016
9.052
9.052
9.032
9.012
9.024
8.988
8.912
8.84
8.808
8.712
8.656
8.572
8.504
8.448
8.376
8.304
8.268
8.228
8.164
8.124
8.12
8.128
8.096
8.06
8.056
8.084
8.056
8.044
8.008
8.02
8.056
8.052
8.032
8.04
8.04
8.024
8.04
8.052
8.044
8.016
8.024
8.044
8.044
8.056
8.012
8.068
8.06
8.068
8.048
8.06
8.068
8.072
8.048
8.044
8.076
8.084
8.036
8.044
8.088
8.06
8.028
8.024
8.056
8.064
8.024
7.988
8.04
8.04
8.028
8.012
8.04
8.016
8.024
8.004
8.028
8.036
8.02
7.996
7.98
8.012
8.036
8.004
7.984
8.028
8.016
8.008
7.972
8.024
8.02
8.004
7.996
8.012
8.028
7.984
7.988
8.032
7.996
7.984
7.968
8.004
8.02
8
7.976
7.992
8.028
8.016
8.008
7.956
8.02
8.008
7.992
7.972
8.012
8.008
7.98
7.98
8.012
8.032
8.004
7.992
8.012
8.012
8.008
7.988
8.008
8.012
8.016
8.016
8.008
8.004
8.02
7.984
8.008
8.028
7.992
7.972
7.988
8.04
8.02
8.008
7.984
8.02
8.04
8.02
7.984
8.02
8.036
8.024
8
7.996
8.02
8.024
8
8.016
8.04
8.016
8.004
8.016
8.036
8.032
7.996
7.992
8.024
8.02
8.028
8.016
8.052
8.08
8.104
8.12
8.108
8.096
8.088
8.112
8.168
8.192
8.148
8.088
8.08
8.096
8.084
8.044
8.052
8.06
8.056
8.04
8.004
8.004
7.996
7.996
7.972
7.984
8
7.972
7.968
8.008
8.024
7.992
7.932
7.84
7.812
7.888
8.024
8.432
9.004
9.596
10.244
10.42
9.964
9.376
8.844
8.284
7.896
7.872
7.964
8.04
8.132
8.152
8.104
8.072
8.096
8.084
8.076
8.04
8.084
8.084
8.092
8.088
8.076
8.112
8.08
8.076
8.076
8.12
8.096
8.096
8.08
8.12
8.132
8.12
8.104
8.12
8.156
8.156
8.144
8.16
8.176
8.172
8.168
8.208
8.208
8.216
8.188
8.232
8.256
8.272
8.252
8.264
8.328
8.324
8.336
8.324
8.388
8.424
8.412
8.432
8.5
8.532
8.556
8.572
8.644
8.664
8.684
8.696
8.768
8.84
8.852
8.876
8.916
8.996
9.02
9.012
9.04
9.096
9.076
9.076
9.064
9.056
8.996
8.928
8.876
8.82
8.748
8.672
8.576
8.528
8.472
8.388
8.308
8.292
8.252
8.22
8.156
8.136
8.136
8.12
8.08
8.08
8.076
8.088
8.056
8.052
8.08
8.072
8.04
8.02
8.064
8.076
8.044
8.032
8.06
8.064
8.072
8.076
8.076
8.084
8.068
8.072
8.072
8.092
8.072
8.064
8.064
8.088
8.06
8.056
8.052
8.064
8.088
8.048
8.036
8.056
8.068
8.06
8.04
8.048
8.048
8.024
8.012
8.056
8.044
8.056
8.02
8.036
8.068
8.052
8.02
7.992
8.024
8.024
8.02
8.008
8.024
8.024
8.024
8.004
8.012
8.036
7.996
7.996
8.02
8.036
8.004
7.996
8.004
8.012
8.02
7.988
7.992
8.012
8.02
7.996
7.992
7.996
8
8.008
7.996
8.024
8.016
8.012
7.984
8.024
8.012
7.988
7.988
8.02
8.04
7.996
7.984
7.992
8.012
8.016
8.004
7.972
8.024
7.988
7.988
7.98
8.012
8.016
7.988
7.964
8.016
8.012
7.988
7.968
7.992
8.008
8
7.968
8.004
8
8.004
7.992
8.004
8
8.004
7.972
8.012
7.992
7.992
7.964
7.972
7.984
8.016
7.98
7.98
8.016
8.004
7.996
7.964
8.02
8.004
8.004
7.98
8.04
8.064
8.04
8.04
8.096
8.076
8.044
8.072
8.124
8.16
8.144
8.076
8.076
8.084
8.052
8.016
8.024
8.024
8.024
8
7.968
7.972
7.972
7.932
7.912
7.956
7.964
7.956
7.9
7.936
7.956
7.956
7.936
7.856
7.804
7.796
7.908
8.18
8.68
9.244
9.936
10.368
10.212
9.6
9.064
8.548
8.036
7.828
7.852
7.964
8.04
8.092
8.108
8.068
8.064
8.048
8.076
8.048
8.048
8.072
8.064
8.036
8.036
8.064
8.068
8.04
8.04
8.112
8.084
8.072
8.04
8.088
8.104
8.1
8.072
8.084
8.112
8.1
8.104
8.128
8.152
8.144
8.132
8.148
8.172
8.168
8.176
8.176
8.196
8.228
8.216
8.232
8.256
8.284
8.288
8.292
8.328
8.372
8.36
8.4
8.428
8.476
8.496
8.524
8.584
8.656
8.664
8.692
8.732
8.8
8.856
8.836
8.892
8.944
8.984
9
9.008
9.06
9.096
9.084
9.048
9.064
9.024
8.952
8.884
8.832
8.776
8.68
8.572
8.532
8.484
8.396
8.312
8.284
8.232
8.196
8.152
8.12
8.108
8.084
8.064
8.04
8.072
8.06
8.048
8.004
8.056
8.076
8.008
8.012
8.028
8.048
8.036
8.04
8.028
8.064
8.036
8.032
8.052
8.048
8.032
8.036
8.024
8.052
8.044
8.024
8.028
8.06
8.072
8.036
8.016
8.036
8.06
8.028
8.024
8.032
8.052
8.016
8.012
8.032
8.048
8.004
7.996
8.004
8.032
8.052
8.008
8.004
8.028
8.036
8.012
8.008
8.024
8.032
8.008
7.984
8.02
8.032
7.988
7.96
8.016
8.032
8
7.972
8.004
8.02
7.992
7.996
7.98
8.016
8.012
8
7.96
7.992
8.016
8.004
7.992
8.024
8.024
7.984
7.992
8.024
8.028
7.972
7.964
8.016
8.032
7.992
7.972
8
8.032
8.004
8
7.988
8.012
8.008
7.984
8
8.02
8.02
7.996
7.992
8.036
8.024
8.012
7.984
8.012
8.012
7.996
8.004
7.988
8.02
8.004
8.004
8.04
8.076
8.072
8.084
8.072
8.1
8.076
8.108
8.14
8.184
8.144
8.068
8.064
8.088
8.072
8.028
8.032
8.048
8.024
7.996
7.988
7.988
7.96
7.948
7.932
7.956
7.984
7.988
7.948
7.936
7.98
7.98
7.9
7.82
7.772
7.872
8.032
8.372
8.944
9.568
10.216
10.364
9.956
9.376
8.84
8.304
7.872
7.832
7.924
7.988
8.056
8.124
8.112
8.064
8.06
8.064
8.072
8.048
8.052
8.068
8.076
8.032
8.04
8.064
8.096
8.076
8.044
8.096
8.116
8.08
8.076
8.084
8.12
8.116
8.108
8.1
8.132
8.12
8.14
8.156
8.176
8.172
8.164
8.196
8.22
8.2
8.18
8.208
8.252
8.276
8.244
8.26
8.296
8.332
8.324
8.332
8.364
8.42
8.428
8.44
8.496
8.528
8.564
8.568
8.628
8.68
8.712
8.716
8.768
8.84
8.868
8.9
8.896
8.984
9.02
9.04
9.044
9.088
9.096
9.052
9.032
9.016
8.976
8.872
8.82
8.748
8.72
8.608
8.512
8.436
8.404
8.332
8.284
8.236
8.22
8.188
8.148
8.116
8.112
8.104
8.072
8.076
8.1
8.064
8.028
8.056
8.088
8.064
8.052
8.04
8.084
8.1
8.08
8.06
8.056
8.1
8.104
8.056
8.064
8.108
8.092
8.056
8.056
8.088
8.088
8.06
8.052
8.08
8.096
8.064
8.044
8.068
8.092
8.076
8.064
8.064
8.08
8.056
8.04
8.072
8.084
8.064
8.016
8.044
8.076
8.064
8.036
8.028
8.06
8.072
8.032
8.024
8.056
8.064
8.024
8.032
8.028
8.036
8.016
8.012
8.044
8.02
8.032
8.016
8.02
8.06
8.04
8
8.024
8.044
8.032
8.012
8
8.036
8.036
8.02
8.016
8.028
8.052
8.008
8.004
8.036
8.044
7.996
8.012
8.02
8.036
8.036
8
8.008
8.028
8.02
8.004
8.016
8.008
8.032
8.008
8.016
8.048
8.052
7.992
7.996
8.036
8.048
8.012
7.98
8.02
8.044
8.02
7.988
8.032
8.024
8.044
8.016
8.032
8.04
8.024
8.028
8.012
8.044
8.032
8.016
8.008
8.008
8.048
8.012
8.012
8.04
8.064
8.036
8.024
8.028
8.052
8.04
8.08
8.1
8.144
8.12
8.084
8.08
8.136
8.168
8.172
8.152
8.164
8.136
8.1
8.044
8.06
8.072
8.04
8.052
8.04
8.052
8.004
7.992
7.964
7.98
7.964
7.944
7.988
8.004
7.98
7.968
7.98
8.004
7.924
7.828
7.8
7.916
8.144
8.636
9.104
9.804
10.372
10.36
9.796
9.256
8.724
8.16
7.844
7.9
8.024
8.052
8.084
8.132
8.156
8.104
8.076
8.044
8.092
8.068
8.088
8.08
8.084
8.084
8.076
8.076
8.096
8.108
8.076
8.064
8.104
8.12
8.092
8.076
8.128
8.152
8.112
8.136
8.14
8.168
8.148
8.156
8.176
8.2
8.196
8.18
8.184
8.236
8.232
8.216
8.224
8.256
8.292
8.284
8.296
8.316
8.356
8.36
8.368
8.408
8.448
8.46
8.46
8.528
8.56
8.556
8.612
8.652
8.708
8.748
8.756
8.804
8.888
8.912
8.94
8.928
9.004
9.04
9.028
9.04
9.064
9.048
9.012
8.964
8.948
8.916
8.816
8.752
8.68
8.636
8.512
8.44
8.36
8.36
8.284
8.236
8.168
8.172
8.136
8.096
8.096
8.088
8.084
8.04
8.044
8.092
8.084
8.024
8.028
8.028
8.076
8.032
8.016
8.036
8.076
8.076
8.048
8.024
8.052
8.06
8.032
8.048
8.068
8.056
8.016
8.052
8.06
8.076
8.06
8.036
8.052
8.084
8.06
8.036
8.056
8.064
8.052
8.032
8.044
8.056
8.056
8.012
8.032
8.052
8.052
8.012
8.032
8.056
8.024
8.012
8.004
8.028
8.048
8.028
8.012
8.04
8.04
8.008
7.992
8.02
8.04
8.008
7.98
8.004
8.028
8.016
8.008
7.976
8.04
8.04
8.012
7.996
8.032
8.004
7.984
8.004
8.012
8.008
7.992
8.008
8.02
8.036
7.976
7.976
8.024
8.004
8.012
7.996
7.992
8.02
8.016
7.984
8.012
8.024
8.024
8
7.992
8.008
8.028
7.996
8
8.02
8.024
7.988
7.988
8.028
8.052
7.984
7.976
8.032
8.04
7.988
7.992
8.012
8.036
8
7.996
8
8.016
7.98
7.988
7.992
8.024
8.024
7.98
7.996
8.016
8.036
7.988
7.984
8.004
8.032
7.996
8
8.016
7.992
7.98
7.996
8
8.02
8
7.968
8.012
8.04
8.024
7.984
7.972
8.02
8.016
7.992
7.98
8.016
8.036
8.036
8.052
8.084
8.108
8.084
8.056
8.08
8.104
8.144
8.156
8.148
8.14
8.084
8.048
8.032
8.072
8.064
8.032
8.016
8.044
8.012
7.976
7.944
7.96
7.98
7.924
7.944
7.976
7.984
7.964
7.96
7.988
7.976
7.836
7.76
7.848
7.992
8.352
8.848
9.46
10.164
10.416
10.036
9.424
8.92
8.376
7.892
7.828
7.976
8.072
8.08
8.084
8.108
8.144
8.056
8.044
8.064
8.096
8.052
8.052
8.064
8.06
8.06
8.032
8.056
8.084
8.092
8.044
8.072
8.084
8.1
8.048
8.072
8.108
8.14
8.088
8.088
8.12
8.156
8.144
8.128
8.152
8.172
8.152
8.148
8.188
8.22
8.208
8.204
8.212
8.284
8.248
8.252
8.276
8.328
8.36
8.328
8.364
8.408
8.444
8.44
8.48
8.512
8.58
8.576
8.628
8.684
8.72
8.724
8.78
8.828
8.88
8.904
8.908
8.952
9.02
9.032
9.032
9.02
9.064
9.056
8.988
8.98
8.928
8.872
8.788
8.696
8.656
8.604
8.5
8.412
8.368
8.336
8.264
8.176
8.176
8.14
8.116
8.084
8.076
8.06
8.056
8.032
8.032
8.052
8.048
8.004
7.996
8.068
8.072
8.016
8.004
8.036
8.056
8.044
8.016
8.036
8.068
8.04
8.032
8.052
8.048
8.044
8.016
8.032
8.06
8.044
8.004
8.012
8.064
8.068
8.016
8.024
8.04
8.056
8.02
8.008
8.032
8.04
8.012
8.004
7.996
8.016
8.012
7.964
8.008
8.028
8.008
7.98
7.984
8
7.988
7.952
7.964
8.012
7.992
7.968
7.956
7.972
8
7.948
7.976
7.984
8.004
7.936
7.952
7.988
8
7.964
7.936
7.964
7.996
7.976
7.956
7.96
7.984
7.96
7.932
7.952
7.972
7.984
7.94
7.96
7.988
7.98
7.948
7.932
7.968
7.984
7.94
7.928
7.96
7.972
7.96
7.948
7.964
7.976
7.964
7.948
7.968
7.968
7.948
7.936
7.96
7.964
7.984
7.94
7.96
7.972
7.98
7.936
7.94
7.956
7.988
7.968
7.964
7.968
7.968
7.956
7.924
7.976
7.984
7.964
7.932
7.956
7.988
7.98
7.948
7.96
7.984
7.972
7.936
7.952
7.952
7.976
7.972
7.948
7.956
7.992
7.956
7.952
7.968
7.976
7.956
7.94
7.968
8.036
8.004
8
8.028
8.032
8.044
8.008
8.08
8.124
8.108
8.056
8.04
8.044
8.02
7.964
7.968
8.008
8.024
7.936
7.932
7.94
7.944
7.912
7.884
7.928
7.92
7.908
7.896
7.9
7.936
7.932
7.888
7.844
7.792
7.728
7.82
8.056
8.548
9.128
9.764
10.268
10.248
9.728
9.14
8.616
8.068
7.792
7.784
7.908
7.996
8.036
8.048
8.032
8.044
8.036
8.024
7.964
7.992
8.02
8.016
8.004
7.98
8.02
8.032
7.988
7.988
8.02
8.056
7.996
8.004
8.02
8.072
8.052
8.032
8.068
8.1
8.084
8.064
8.096
8.124
8.128
8.08
8.116
8.136
8.148
8.112
8.16
8.18
8.2
8.196
8.184
8.236
8.268
8.252
8.248
8.32
8.336
8.348
8.328
8.4
8.46
8.476
8.484
8.52
8.596
8.644
8.64
8.696
8.764
8.772
8.792
8.84
8.912
8.944
8.948
8.956
9.048
9.064
9.028
8.992
9
8.992
8.94
8.868
8.812
8.744
8.66
8.548
8.492
8.456
8.364
8.26
8.24
8.208
8.176
8.084
8.076
8.08
8.096
8.012
7.996
8.016
8.036
7.992
7.96
8
8.004
7.992
7.972
8.008
8
8.004
7.976
8.008
8.012
8.012
7.968
7.98
8.02
8.024
7.964
7.964
7.98
8.024
7.996
7.976
7.996
8.024
7.98
7.984
8
8.012
7.972
7.96
7.996
8.012
8
7.944
7.992
8.008
7.988
7.944
7.952
7.964
7.972
7.956
7.964
7.968
7.964
7.936
7.948
7.988
7.98
7.948
7.94
7.944
7.988
7.948
7.928
7.932
7.972
7.96
7.912
7.944
7.972
7.968
7.92
7.94
7.972
7.972
7.92
7.932
7.984
7.976
7.944
7.92
7.968
7.988
7.948
7.928
7.948
7.96
7.964
7.936
7.952
7.968
7.932
7.928
7.956
7.932
7.968
7.92
7.944
7.968
7.96
7.928
7.924
7.984
7.96
7.928
7.912
7.964
7.984
7.924
7.936
7.952
7.976
7.936
7.772
7.948
7.972
7.964
7.928
7.948
7.968
7.964
7.928
7.932
7.984
7.98
7.944
7.916
7.964
7.964
7.988
8.004
8.024
8.044
8.024
8
8.04
8.08
8.08
8.064
8.088
8.096
8.072
8.024
8
8.012
8.008
7.98
7.988
7.98
7.976
7.944
7.932
7.952
7.928
7.904
7.928
7.936
7.952
7.912
7.876
7.96
7.948
7.856
7.752
7.776
7.896
8.2
8.644
9.208
9.94
10.404
10.208
9.604
9.076
8.564
8
7.776
7.892
7.98
8.024
8.032
8.092
8.108
8.056
8.02
8.048
8.06
8.04
8.004
8.032
8.056
8.044
8.016
8.048
8.068
8.068
8.016
8.036
8.08
8.104
8.048
8.036
8.108
8.12
8.084
8.068
8.12
8.144
8.1
8.124
8.136
8.14
8.112
8.14
8.184
8.196
8.188
8.148
8.208
8.244
8.252
8.224
8.244
8.312
8.332
8.316
8.336
8.376
8.428
8.416
8.456
8.5
8.544
8.548
8.568
8.668
8.7
8.712
8.748
8.804
8.868
8.896
8.888
8.948
9.016
9.016
9
9.036
9.064
9.044
8.984
8.94
8.936
8.876
8.764
8.688
8.656
8.588
8.472
8.384
8.352
8.312
8.26
8.176
8.16
8.136
8.12
8.08
8.064
8.076
8.068
8.008
8.02
8.052
8.028
8
7.972
8.044
8.056
7.996
7.972
8.04
8.06
8.024
7.984
8.016
8.036
8.04
8.016
8.044
8.036
8.052
8
8.036
8.056
8.032
8.016
8.032
8.076
8.076
8.052
7.992
8.052
8.056
8.032
8.004
8.028
8.044
8.016
8.004
8.032
8.052
8.016
7.988
8.016
8.052
8.028
7.956
7.984
8.008
8.032
7.996
7.988
8.028
8.004
7.984
7.992
7.996
8.016
7.98
7.96
8.032
8.02
7.988
7.964
8.02
8.016
7.984
7.952
7.996
8.004
8.008
7.98
7.992
8.012
8.012
7.968
7.972
8.012
7.976
7.968
7.956
8.012
7.984
7.984
7.96
7.984
7.996
7.992
7.952
8
8
8
7.98
7.996
7.988
8
7.972
7.98
8.028
8.012
7.944
7.968
8.012
8.012
7.968
7.956
7.996
8.004
7.964
7.956
7.976
7.988
7.984
7.968
7.988
7.988
7.956
7.964
7.98
7.988
7.992
7.952
7.976
8.016
8.008
7.968
7.948
8
8.016
7.964
7.952
7.98
8.016
7.972
7.968
7.972
8.016
7.968
7.964
8.012
8.004
7.988
7.936
7.996
8.024
8.012
7.972
7.988
7.996
8.008
8
8.028
8.076
8.1
8.032
8.04
8.084
8.116
8.132
8.116
8.116
8.1
8.08
8.02
8.02
8.06
8.044
7.988
8.004
8.012
7.996
7.932
7.928
7.956
7.94
7.92
7.956
7.964
7.98
7.932
7.936
7.964
7.944
7.816
7.74
7.876
8.104
8.492
9.012
9.684
10.34
10.392
9.832
9.276
8.788
8.204
7.812
7.884
7.996
8.068
8.064
8.068
8.128
8.096
8.036
8.016
8.072
8.088
8.06
8.04
8.068
8.084
8.036
8.016
8.08
8.084
8.056
8.028
8.092
8.124
8.108
8.072
8.072
8.12
8.136
8.104
8.076
8.136
8.164
8.124
8.128
8.164
8.168
8.172
8.184
8.204
8.232
8.216
8.188
8.236
8.3
8.236
8.26
8.292
8.352
8.34
8.34
8.372
8.448
8.452
8.456
8.476
8.556
8.592
8.58
8.64
8.688
8.752
8.744
8.776
8.864
8.924
8.916
8.92
9
9.036
9.044
9.024
9.064
9.08
9.064
8.992
8.976
8.98
8.888
8.792
8.712
8.692
8.612
8.5
8.428
8.412
8.352
8.276
8.196
8.232
8.196
8.132
8.096
8.108
8.108
8.076
8.044
8.08
8.08
8.08
8.028
8.04
8.092
8.08
8.028
8.02
8.068
8.084
8.052
8.02
8.068
8.092
8.068
8.02
8.056
8.096
8.04
8.036
8.08
8.076
8.044
8.032
8.048
8.08
8.076
8.04
8.032
8.068
8.068
8.04
8.024
8.056
8.06
8.024
8.036
8.04
8.056
8.02
7.992
8.032
8.048
8.028
7.996
8.02
8.044
8.024
8.008
8
8.02
8.036
7.98
8.008
8.028
8.028
8
8.008
8.024
8.008
7.976
7.96
8.032
8.016
7.992
7.96
8.02
8.04
8.004
7.988
8.004
8.016
7.992
7.964
7.976
8.032
8.024
7.968
7.984
8.012
8.02
7.988
7.98
8.032
8.008
7.984
7.964
8.02
8.016
7.98
7.948
7.984
8.028
7.98
7.968
7.992
8.012
7.964
7.944
7.98
8.008
7.992
7.948
7.976
8.02
8.008
7.952
7.972
7.984
8.012
7.984
7.956
8
8.016
7.98
7.972
8
7.996
7.976
7.96
8.008
8.008
7.984
7.948
7.972
8.012
8.02
7.944
7.972
8.016
8.012
7.96
7.964
7.98
7.984
7.988
7.984
8.004
8.016
7.98
7.952
8.004
8.012
7.976
7.972
8.04
8.084
8.088
8.056
8.044
8.06
8.064
8.092
8.14
8.148
8.136
8.052
8.068
8.064
8.036
8.004
7.992
8.024
8.016
8
7.944
7.968
7.968
7.932
7.912
7.944
7.944
7.94
7.904
7.932
7.948
7.924
7.848
7.776
7.804
7.9
8.152
8.604
9.212
9.904
10.356
10.236
9.68
9.136
8.616
8.036
7.82
7.888
7.988
8.028
8.076
8.1
8.08
8.052
8.056
8.092
8.06
8.036
8.036
8.084
8.084
8.032
8.044
8.084
8.096
8.068
8.052
8.088
8.096
8.06
8.052
8.108
8.14
8.12
8.084
8.128
8.164
8.144
8.104
8.116
8.18
8.18
8.152
8.168
8.176
8.208
8.188
8.2
8.248
8.248
8.22
8.228
8.288
8.316
8.32
8.316
8.352
8.408
8.424
8.412
8.48
8.54
8.552
8.544
8.596
8.688
8.696
8.732
8.788
8.848
8.884
8.884
8.916
9.02
9.032
9.024
9.048
9.096
9.096
9.084
9.036
9.044
9.004
8.948
8.868
8.808
8.74
8.632
8.544
8.496
8.436
8.36
8.26
8.224
8.236
8.196
8.136
8.104
8.104
8.108
8.08
8.028
8.04
8.06
8.052
8.04
8.064
8.06
8.012
8.012
8.04
8.052
8.036
8.004
8.048
8.056
8.048
8
8.04
8.04
8.032
8.02
7.992
8.048
8.056
8.044
8.016
8.052
8.072
8.048
7.996
8.052
8.068
8.02
8.004
8.036
8.052
8.036
8.012
8.036
8.072
8
8
8
8.024
8.036
7.98
7.98
8.044
7.996
7.996
7.976
8.032
8.024
7.988
7.944
8.012
8.028
8
7.968
7.976
8.02
8.012
7.984
7.98
8.02
8.008
7.968
7.98
8.016
8.004
7.952
7.96
8.028
8.024
7.976
7.94
8
8.016
7.996
7.96
8.012
8.012
8.004
7.976
8
8.028
7.98
7.968
8.004
8.024
7.988
7.976
7.96
8.028
8.024
7.984
7.956
8.012
8.024
8
7.984
8.008
8.012
7.98
7.972
8.016
8.024
8
7.98
7.992
8.04
8.004
7.968
8.004
8.056
8.024
8.004
8.012
8.068
8.1
8.072
8.088
8.092
8.092
8.06
8.124
8.188
8.176
8.088
8.076
8.1
8.092
8.04
8.024
8.036
8.068
8.02
7.984
7.956
7.98
7.972
7.952
7.96
7.996
8
7.948
7.952
8.008
8.004
7.956
7.872
7.844
7.856
7.932
8.156
8.648
9.228
9.912
10.368
10.292
9.716
9.164
8.612
8.1
7.84
7.896
7.952
8.04
8.132
8.12
8.104
8.092
8.104
8.108
8.08
8.056
8.092
8.104
8.092
8.068
8.092
8.124
8.092
8.096
8.128
8.132
8.104
8.084
8.108
8.16
8.128
8.112
8.12
8.168
8.172
8.136
8.14
8.16
8.208
8.204
8.172
8.204
8.228
8.188
8.216
8.26
8.276
8.272
8.252
8.296
8.34
8.352
8.316
8.376
8.424
8.44
8.424
8.456
8.512
8.532
8.544
8.56
8.672
8.716
8.736
8.748
8.84
8.884
8.88
8.888
8.96
9.016
9.024
9.028
9.076
9.104
9.092
9.048
9.04
9.032
8.984
8.88
8.804
8.792
8.704
8.584
8.508
8.504
8.412
8.32
8.26
8.252
8.244
8.188
8.132
8.14
8.148
8.104
8.056
8.092
8.12
8.064
8.06
8.092
8.12
8.088
8.048
8.072
8.084
8.116
8.072
8.068
8.1
8.112
8.08
8.052
8.116
8.108
8.076
8.06
8.096
8.116
8.072
8.056
8.08
8.128
8.104
8.064
8.072
8.108
8.108
8.072
8.06
8.064
8.076
8.072
8.052
8.072
8.084
8.048
8.032
8.068
8.084
8.04
8.008
8.088
8.092
8.056
8.016
8.04
8.072
8.068
8.036
8.044
8.052
8.072
8.048
8.02
8.06
8.056
8.004
8.036
8.052
8.052
8.02
8.024
8.06
8.064
8.056
8.016
8.052
8.076
8.048
8.004
8.04
8.056
8.044
8.032
8.032
8.076
8.044
8.024
8.036
8.06
8.052
8.036
8.028
8.06
8.056
8.044
8.02
8.052
8.084
8.068
8.036
8.028
8.072
8.04
8.032
8.076
8.088
8.056
8.024
8.032
8.076
8.048
8.016
8.024
8.084
8.072
8.036
8.012
8.072
8.052
8.04
8.036
8.072
8.084
8.04
8.028
8.064
8.056
8.052
8.024
8.06
8.064
8.072
8.016
8.052
8.044
8.092
8.068
8.088
8.14
8.164
8.14
8.08
8.136
8.176
8.16
8.192
8.22
8.184
8.132
8.084
8.112
8.12
8.088
8.044
8.064
8.096
8.08
8.024
8.004
8.016
8
7.992
7.996
8.024
8.008
8.004
7.996
8.024
8.048
7.924
7.836
7.904
8.016
8.272
8.708
9.336
10.036
10.456
10.248
9.656
9.14
8.588
8.056
7.864
7.984
8.068
8.096
8.148
8.176
8.184
8.108
8.104
8.112
8.16
8.1
8.06
8.104
8.14
8.128
8.1
8.144
8.156
8.136
8.104
8.132
8.152
8.156
8.112
8.128
8.168
8.172
8.116
8.148
8.18
8.208
8.172
8.156
8.216
8.232
8.208
8.212
8.244
8.264
8.244
8.24
8.3
8.312
8.308
8.3
8.336
8.376
8.396
8.356
8.388
8.46
8.504
8.472
8.5
8.584
8.612
8.604
8.652
8.708
8.74
8.76
8.804
8.876
8.92
8.908
8.944
9
9.056
9.064
9.076
9.084
9.124
9.096
9.052
9.004
8.988
8.932
8.844
8.78
8.732
8.676
8.544
8.44
8.448
8.404
8.316
8.24
8.216
8.212
8.184
8.12
8.132
8.156
8.12
8.092
8.1
8.112
8.088
8.06
8.064
8.096
8.088
8.06
8.064
8.1
8.096
8.072
8.052
8.104
8.104
8.084
8.044
8.088
8.12
8.084
8.072
8.092
8.108
8.072
8.052
8.08
8.096
8.1
8.064
8.088
8.116
8.108
8.048
8.04
8.088
8.088
8.052
8.036
8.072
8.1
8.064
8.052
8.068
8.084
8.056
8.028
8.06
8.104
8.06
8.048
8.04
8.084
8.044
8.04
8.04
8.064
8.056
8.048
8.04
8.052
8.06
8.024
8.036
8.056
8.056
8.032
8.02
8.04
8.084
8.052
8.016
8.016
8.052
8.048
8.028
8.032
8.048
8.036
8.032
8.012
8.068
8.028
8.012
8.012
8.048
8.064
7.996
8.004
8.052
8.068
8.036
8.008
8.04
8.064
8.028
8.008
8.036
8.064
8.04
8.012
8.02
8.068
8.04
8.016
8.016
8.06
8.06
8.02
8.012
8.052
8.044
8.028
8.028
8.052
8.06
8.028
8.008
8.036
8.048
8.024
8.032
8.052
8.052
8.024
7.992
8.032
8.08
8.052
8.012
8.004
8.048
8.068
8.048
8.024
8.04
8.052
8.012
8.036
8.056
8.06
8.064
8.08
8.108
8.156
8.12
8.068
8.112
8.156
8.196
8.184
8.164
8.176
8.152
8.116
8.08
8.092
8.088
8.052
8.052
8.072
8.028
8.008
7.976
8.024
8.016
7.988
7.964
7.996
8.012
8
7.976
7.996
8.012
7.904
7.804
7.864
8.052
8.36
8.832
9.46
10.192
10.444
10.08
9.496
9.004
8.468
7.956
7.828
7.984
8.088
8.116
8.108
8.112
8.12
8.136
8.076
8.096
8.12
8.084
8.056
8.108
8.132
8.112
8.084
8.096
8.128
8.124
8.076
8.076
8.144
8.16
8.12
8.112
8.156
8.168
8.152
8.148
8.18
8.196
8.176
8.144
8.208
8.228
8.212
8.192
8.236
8.26
8.28
8.256
8.272
8.312
8.296
8.304
8.304
8.34
8.396
8.372
8.384
8.448
8.48
8.48
8.5
8.576
8.64
8.628
8.64
8.712
8.764
8.812
8.82
8.856
8.9
8.96
8.98
9.02
9.064
9.092
9.068
9.092
9.124
9.124
9.04
8.988
8.996
8.956
8.836
8.764
8.696
8.66
8.552
8.468
8.428
8.38
8.304
8.248
8.22
8.208
8.176
8.132
8.124
8.144
8.124
8.076
8.08
8.1
8.112
8.06
8.068
8.092
8.112
8.064
8.04
8.072
8.104
8.076
8.06
8.076
8.092
8.08
8.056
8.076
8.116
8.1
8.044
8.056
8.08
8.092
8.06
8.064
8.092
8.12
8.088
8.072
8.068
8.1
8.048
8.048
8.084
8.072
8.056
8.036
8.076
8.104
8.052
8.04
8.052
8.08
8.056
8.032
8.04
8.072
8.06
8.036
8.032
8.076
8.056
8.016
8.016
8.06
8.068
8.02
8.032
8.012
8.076
8.056
8
8.032
8.068
8.056
8
8.016
8.056
8.06
8.02
8.036
8.048
8.044
8.004
8.032
8.056
8.052
8.012
8.004
8.02
8.064
8.028
8.012
8.028
8.044
8.032
8.008
8.024
8.04
8.004
8.016
8.016
8.024
8.036
7.984
8.012
8.068
8.044
7.988
7.996
8.052
8.064
8.024
8.004
8.032
8.048
8.012
8.004
8.032
8.032
8.02
8
8.012
8.044
8.028
8.004
8.016
8.064
8.04
8.008
7.988
8.028
8.076
8.088
8.068
8.144
8.116
8.084
8.064
8.112
8.184
8.184
8.132
8.14
8.164
8.096
8.044
8.052
8.112
8.076
8.04
8.024
8.04
8.032
7.992
7.968
8
8.016
7.98
8.004
8.012
8.016
7.992
7.992
7.988
7.916
7.812
7.836
7.972
8.34
8.804
9.376
10.072
10.436
10.184
9.564
9.056
8.56
8.036
7.82
7.884
8.048
8.08
8.096
8.112
8.152
8.132
8.084
8.092
8.092
8.136
8.096
8.088
8.1
8.124
8.088
8.108
8.108
8.136
8.12
8.092
8.116
8.164
8.132
8.12
8.144
8.164
8.184
8.136
8.144
8.168
8.216
8.188
8.176
8.204
8.232
8.22
8.224
8.244
8.288
8.248
8.252
8.3
8.328
8.304
8.312
8.356
8.396
8.396
8.388
8.432
8.484
8.508
8.512
8.528
8.604
8.656
8.656
8.676
8.748
8.808
8.816
8.812
8.9
8.956
8.968
8.992
9.028
9.092
9.108
9.088
9.1
9.096
9.068
9.02
8.952
8.932
8.856
8.768
8.68
8.644
8.548
8.452
8.38
8.348
8.328
8.22
8.192
8.188
8.196
8.14
8.116
8.104
8.124
8.08
8.084
8.092
8.104
8.08
8.08
8.08
8.116
8.076
8.06
8.06
8.108
8.124
8.084
8.072
8.096
8.128
8.092
8.068
8.096
8.112
8.1
8.056
8.072
8.108
8.088
8.052
8.1
8.1
8.12
8.076
8.052
8.096
8.1
8.056
8.048
8.072
8.08
8.052
8.04
8.072
8.064
8.024
8.048
8.072
8.076
8.048
8.028
8.056
8.08
8.04
8.016
7.992
8.072
8.06
8.024
8.04
8.048
8.056
8.032
8.04
8.056
8.04
8.012
8.036
8.032
8.068
8.036
8.024
8.016
8.06
8.016
7.984
8.02
8.04
8.048
8
8.024
8.04
8.036
8.04
8.008
8.056
8.044
8.004
8.024
8.032
8.036
7.996
8.016
8.036
8.064
8.032
7.988
8.028
8.036
8.02
8.008
8.028
8.056
8.036
8.024
8.028
8.06
8.016
7.992
8
8.044
8.056
8.024
8.016
8.036
8.068
8.032
8.024
8.036
8.04
8.04
8.02
8.044
8.112
8.1
8.124
8.144
8.116
8.108
8.096
8.148
8.22
8.18
8.116
8.108
8.1
8.112
8.064
8.048
8.08
8.072
8.036
8.028
8.032
8.016
7.992
7.98
7.988
8.028
7.992
7.956
7.992
8.008
7.992
7.964
7.92
7.836
7.88
7.992
8.312
8.804
9.396
10.072
10.452
10.204
9.608
9.024
8.508
8.056
7.864
7.948
8.028
8.084
8.16
8.16
8.12
8.128
8.096
8.112
8.1
8.084
8.104
8.108
8.084
8.092
8.128
8.148
8.084
8.132
8.168
8.164
8.132
8.108
8.144
8.196
8.14
8.152
8.16
8.184
8.176
8.192
8.192
8.212
8.212
8.188
8.236
8.272
8.256
8.236
8.244
8.292
8.308
8.288
8.328
8.348
8.348
8.368
8.368
8.4
8.436
8.452
8.472
8.52
8.552
8.576
8.588
8.656
8.732
8.728
8.74
8.78
8.856
8.892
8.912
8.956
9
9.044
9.052
9.064
9.124
9.112
9.104
9.096
9.092
9.04
8.968
8.908
8.876
8.812
8.696
8.584
8.564
8.516
8.432
8.348
8.316
8.304
8.24
8.204
8.176
8.156
8.168
8.116
8.124
8.148
8.136
8.104
8.112
8.116
8.136
8.112
8.088
8.108
8.12
8.116
8.096
8.112
8.124
8.12
8.088
8.104
8.124
8.1
8.096
8.112
8.14
8.148
8.088
8.08
8.124
8.172
8.104
8.084
8.116
8.136
8.108
8.108
8.112
8.132
8.104
8.088
8.116
8.116
8.068
8.076
8.092
8.12
8.084
8.052
8.076
8.088
8.104
8.044
8.048
8.092
8.116
8.072
8.06
8.092
8.1
8.048
8.048
8.088
8.068
8.052
8.048
8.064
8.088
8.084
8.044
8.06
8.064
8.064
8.044
8.056
8.076
8.076
8.056
8.06
8.092
8.076
8.028
8.032
8.084
8.076
8.064
8.036
8.036
8.096
8.06
8.024
8.06
8.056
8.064
8.044
8.064
8.056
8.06
8.048
8.048
8.08
8.056
8.048
8.024
8.076
8.096
8.036
8.048
8.052
8.1
8.056
8.036
8.064
8.072
8.076
8.052
8.068
8.072
8.048
8.056
8.072
8.084
8.064
8.04
8.06
8.1
8.084
8.048
8.06
8.096
8.148
8.136
8.116
8.192
8.18
8.132
8.128
8.196
8.236
8.216
8.16
8.164
8.184
8.152
8.092
8.104
8.112
8.14
8.076
8.056
8.044
8.076
8.028
7.988
8.032
8.032
8.02
8.02
8.04
8.052
8.04
8.012
8.02
7.912
7.864
7.928
8.116
8.54
9.056
9.664
10.328
10.492
9.98
9.388
8.876
8.332
7.932
7.88
8.008
8.12
8.14
8.156
8.156
8.164
8.176
8.116
8.1
8.12
8.164
8.136
8.124
8.14
8.152
8.14
8.148
8.16
8.148
8.136
8.12
8.156
8.164
8.172
8.148
8.152
8.196
8.224
8.188
8.168
8.188
8.208
8.208
8.188
8.22
8.232
8.232
8.22
8.272
8.28
8.268
8.272
8.3
8.348
8.328
8.316
8.356
8.404
8.42
8.404
8.44
8.488
8.54
8.556
8.572
8.612
8.672
8.704
8.712
8.784
8.828
8.852
8.86
8.92
8.984
8.996
9
9.052
9.108
9.092
9.092
9.08
9.088
9.052
8.98
8.964
8.88
8.82
8.704
8.652
8.58
8.528
8.432
8.344
8.34
8.308
8.252
8.172
8.172
8.176
8.12
8.12
8.092
8.072
8.092
8.064
8.08
8.088
8.084
8.044
8.052
8.096
8.08
8.076
8.056
8.092
8.084
8.084
8.04
8.076
8.108
8.084
8.068
8.08
8.096
8.076
8.056
8.084
8.084
8.092
8.048
8.076
8.1
8.072
8.056
8.052
8.072
8.08
8.06
8.048
8.08
8.084
8.048
8.06
8.044
8.072
8.048
8.024
8.068
8.068
8.068
8.036
8.036
8.072
8.068
8.02
8.024
8.04
8.072
8.024
8.024
8.028
8.04
8.024
8.016
8.028
8.036
8.024
8.016
8.044
8.06
8.032
7.988
8.008
8.052
8.036
8.012
8.024
8.024
8.044
7.996
8.016
8.04
8.036
8.016
8.02
8.032
8.032
8.008
8.004
8.024
8.044
8.012
8
8.02
8.064
8.02
7.996
8.02
8.024
8.032
8.016
8.024
8.036
8.016
7.98
8.02
8.044
8.04
8.004
8.004
8.036
8.048
7.996
7.984
8.012
8.036
8.016
7.988
8.008
8.028
8.028
8.008
8.032
8.036
8.028
7.988
8.036
8.028
8.02
7.988
8.052
8.064
8.1
8.092
8.068
8.072
8.084
8.116
8.144
8.164
8.152
8.128
8.096
8.096
8.088
8.032
8.048
8.06
8.052
8.024
8.008
7.992
7.988
7.972
7.968
7.96
7.992
7.988
7.968
7.964
8
8.02
7.952
7.872
7.82
7.892
8.016
8.352
8.88
9.52
10.156
10.396
10.056
9.488
8.964
8.4
7.944
7.832
7.928
8
8.084
8.124
8.108
8.088
8.084
8.088
8.104
8.064
8.052
8.104
8.108
8.084
8.076
8.104
8.096
8.112
8.092
8.096
8.108
8.108
8.104
8.136
8.136
8.124
8.128
8.152
8.176
8.156
8.152
8.16
8.192
8.204
8.18
8.188
8.216
8.232
8.224
8.224
8.252
8.28
8.28
8.28
8.316
8.332
8.348
8.324
8.376
8.424
8.46
8.46
8.472
8.536
8.596
8.6
8.616
8.664
8.732
8.756
8.788
8.832
8.872
8.892
8.932
8.992
9.032
9.048
9.056
9.108
9.112
9.096
9.072
9.04
9.012
8.996
8.876
8.816
8.772
8.684
8.58
8.508
8.464
8.408
8.324
8.288
8.256
8.224
8.176
8.128
8.14
8.128
8.12
8.08
8.1
8.12
8.116
8.064
8.092
8.084
8.1
8.088
8.072
8.092
8.096
8.064
8.092
8.096
8.1
8.084
8.064
8.088
8.124
8.072
8.048
8.092
8.112
8.092
8.088
8.096
8.112
8.1
8.06
8.076
8.1
8.088
8.064
8.084
8.1
8.1
8.044
8.068
8.092
8.096
8.068
8.036
8.052
8.08
8.06
8.044
8.08
8.072
8.052
8.04
8.052
8.08
8.06
8.036
8.028
8.068
8.052
8.008
8.028
8.028
8.056
8.028
8.056
8.064
8.068
8.048
8.036
8.056
8.064
8.028
8.044
8.06
8.076
8.052
8.028
8.048
8.068
8.02
8.036
8.036
8.052
8.056
8.036
8.036
8.056
8.056
8.032
8.056
8.072
8.048
8.028
8.02
8.052
8.068
8.036
8.004
8.048
8.06
8.044
8.02
8.036
8.064
8.052
8.02
8.024
8.028
8.048
8.044
8.044
8.06
8.032
8.004
8.02
8.052
8.036
8.02
8.024
8.052
8.056
8.052
8.032
8.028
8.056
8.072
8.072
8.12
8.14
8.128
8.092
8.096
8.156
8.204
8.184
8.184
8.164
8.16
8.108
8.08
8.104
8.092
8.1
8.068
8.052
8.06
8
8.008
8.024
8.012
7.988
7.976
8.016
8.044
8.012
7.984
8.012
8.012
7.916
7.828
7.896
8.056
8.408
8.892
9.46
10.184
10.488
10.116
9.524
9.02
8.48
8
7.872
8
8.108
8.12
8.132
8.172
8.18
8.14
8.128
8.112
8.14
8.128
8.124
8.1
8.128
8.124
8.112
8.112
8.128
8.152
8.136
8.112
8.152
8.168
8.164
8.12
8.156
8.188
8.168
8.172
8.18
8.188
8.2
8.212
8.232
8.244
8.232
8.232
8.264
8.3
8.292
8.292
8.276
8.324
8.352
8.348
8.336
8.372
8.412
8.416
8.412
8.46
8.488
8.512
8.54
8.596
8.636
8.652
8.684
8.736
8.792
8.82
8.84
8.888
8.948
8.96
8.992
9.024
9.072
9.1
9.088
9.076
9.116
9.096
9.068
9.024
8.976
8.92
8.82
8.74
8.696
8.636
8.54
8.464
8.396
8.36
8.284
8.256
8.204
8.208
8.176
8.16
8.116
8.136
8.128
8.104
8.096
8.124
8.128
8.072
8.056
8.112
8.128
8.08
8.08
8.076
8.112
8.104
8.084
8.092
8.108
8.084
8.08
8.112
8.088
8.096
8.084
8.1
8.108
8.108
8.08
8.064
8.104
8.116
8.104
8.092
8.092
8.116
8.1
8.064
8.092
8.076
8.064
8.068
8.084
8.08
8.076
8.068
8.072
8.092
8.08
8.044
8.04
8.064
8.056
8.064
8.032
8.064
8.064
8.04
8.036
8.064
8.072
8.02
8.02
8.056
8.072
8.048
8.008
8.016
8.064
8.052
8.028
8.016
8.052
8.044
8.028
8.052
8.044
8.048
8.024
8.028
8.036
8.04
8.012
8.016
8.044
8.056
8.04
8.012
8.056
8.068
8.032
8.02
8.036
8.064
8.04
8.024
8.016
8.024
8.032
8.016
8.036
8.032
8.036
8.02
8.012
8.048
8.032
8.004
8.004
8.036
8.056
8.052
8.008
8.036
8.04
8.036
7.992
8.04
8.048
8.012
8.02
8.028
8.064
8.032
8
8.008
8.032
8.044
7.996
8.004
8.044
8.056
8.024
8.016
8.016
8.04
8.052
8.068
8.104
8.112
8.116
8.096
8.096
8.112
8.148
8.172
8.168
8.152
8.14
8.104
8.064
8.072
8.084
8.056
8.044
8.06
8.06
8.032
7.984
7.98
7.984
7.992
7.972
8.004
8.024
7.984
7.976
7.976
7.988
7.94
7.836
7.808
7.904
8.16
8.564
9.112
9.812
10.348
10.336
9.772
9.24
8.72
8.136
7.812
7.908
8.024
8.048
8.072
8.144
8.132
8.104
8.052
8.088
8.096
8.048
8.076
8.068
8.092
8.076
8.06
8.068
8.1
8.088
8.088
8.06
8.112
8.14
8.104
8.1
8.104
8.128
8.116
8.12
8.148
8.164
8.152
8.144
8.152
8.2
8.2
8.16
8.192
8.224
8.232
8.216
8.228
8.264
8.296
8.272
8.288
8.328
8.34
8.34
8.384
8.412
8.44
8.444
8.46
8.516
8.552
8.564
8.608
8.672
8.736
8.732
8.768
8.788
8.868
8.916
8.948
8.948
9.008
9.036
9.048
9.032
9.068
9.068
9.036
9.016
8.98
8.932
8.828
8.744
8.712
8.652
8.548
8.464
8.424
8.368
8.32
8.252
8.204
8.168
8.164
8.136
8.124
8.108
8.104
8.076
8.04
8.08
8.072
8.024
8
8.076
8.088
8.056
8.012
8.056
8.08
8.072
8.064
8.056
8.068
8.044
8.06
8.076
8.072
8.084
8.048
8.052
8.076
8.096
8.06
8.036
8.076
8.08
8.068
8.056
8.064
8.068
8.08
8.048
8.072
8.036
8.004
8.048
8.048
8.064
8.048
8.028
8.028
8.052
8.032
8.024
8.02
8.04
8.044
8.012
8.012
8.032
8.032
8.024
8.02
8.048
8.016
7.996
7.988
8.028
8.052
7.992
7.996
8.012
8.044
8.028
7.988
7.988
7.992
8.016
7.976
8
7.996
7.988
7.996
8
8.044
8.012
7.98
7.984
8.024
8.028
7.988
7.968
7.992
8.008
7.996
7.98
7.976
8.024
8.008
8
7.972
7.988
7.988
7.992
7.988
8.036
7.996
7.972
7.964
8.02
8.016
7.964
7.956
7.98
8.004
7.992
7.96
8
8.008
7.988
7.98
7.984
8.016
7.972
7.972
7.984
8.016
8
7.98
7.972
8.008
7.996
7.956
7.952
7.988
7.996
7.972
7.988
7.996
7.984
7.972
7.976
7.996
8.036
8.024
8.02
8.064
8.092
8.028
8.02
8.064
8.152
8.148
8.092
8.072
8.088
8.072
8.024
8.008
8.036
8.028
8.004
7.98
7.976
7.984
7.908
7.912
7.944
7.964
7.932
7.904
7.936
7.964
7.944
7.936
7.892
7.84
7.744
7.824
7.992
8.376
8.884
9.496
10.168
10.388
9.932
9.332
8.804
8.296
7.872
7.788
7.908
7.976
8.028
8.06
8.044
8.052
8.032
8.004
8
8.02
8.032
8.028
7.988
8.02
8.04
8.048
8.016
7.984
8.048
8.044
8.044
8.056
8.044
8.068
8.076
8.048
8.056
8.068
8.072
8.056
8.096
8.112
8.108
8.096
8.112
8.128
8.152
8.128
8.124
8.192
8.212
8.192
8.192
8.232
8.244
8.244
8.26
8.296
8.332
8.328
8.344
8.388
8.444
8.444
8.456
8.532
8.58
8.596
8.596
8.656
8.724
8.776
8.788
8.82
8.884
8.904
8.924
8.964
9.004
9.02
9.024
8.988
9.02
9
8.928
8.868
8.832
8.772
8.684
8.58
8.528
8.472
8.4
8.332
8.26
8.228
8.176
8.124
8.1
8.096
8.06
8.024
7.996
8.04
8.052
8.004
7.988
8.024
8.024
7.984
7.972
8
8
8
8.008
8.004
8.016
8.008
7.984
7.976
8.008
8.008
7.984
7.988
8.036
8.02
7.992
7.96
8.004
8.016
8.012
7.972
7.988
8.024
8.012
8
8.02
8.044
7.984
7.972
8
8.012
8.008
7.98
7.948
7.968
7.996
7.952
7.96
7.98
7.984
7.972
7.956
7.968
7.984
7.972
7.96
7.98
7.988
7.956
7.932
7.972
7.972
7.956
7.936
7.94
7.964
7.972
7.948
7.936
7.972
7.96
7.944
7.924
7.944
7.944
7.908
7.952
7.988
7.956
7.94
7.936
7.972
7.968
7.964
7.952
7.944
7.972
7.944
7.948
7.94
7.944
7.96
7.94
7.956
7.968
7.952
7.94
7.944
7.988
7.984
7.932
7.956
7.98
7.996
7.948
7.932
7.956
7.972
7.948
7.964
7.952
7.972
7.96
7.964
7.968
7.972
7.956
7.936
7.976
7.972
7.968
7.948
7.956
7.984
7.98
7.936
7.964
7.996
7.992
7.972
8.008
8.064
8.076
8.06
8.064
8.06
8.056
8.088
8.124
8.096
8.124
8.088
8.048
8.036
8.024
8.036
8
8.024
8.012
7.992
7.948
7.928
7.96
7.96
7.936
7.952
7.972
7.948
7.956
7.956
7.948
7.984
7.9
7.792
7.744
7.9
8.14
8.548
9.124
9.812
10.34
10.288
9.74
9.208
8.676
8.124
7.804
7.864
7.976
8.02
8.08
8.092
8.116
8.072
8.048
8.064
8.06
8.044
8.048
8.064
8.052
8.052
8.06
8.072
8.084
8.084
8.068
8.072
8.088
8.1
8.08
8.08
8.104
8.148
8.128
8.128
8.116
8.16
8.128
8.14
8.156
8.176
8.168
8.164
8.192
8.208
8.216
8.208
8.22
8.28
8.296
8.26
8.288
8.328
8.372
8.348
8.376
8.424
8.448
8.46
8.468
8.52
8.556
8.572
8.624
8.684
8.736
8.74
8.768
8.836
8.872
8.892
8.908
8.956
9.012
9.064
9.028
9.056
9.072
9.08
9.02
8.996
8.98
8.912
8.828
8.76
8.72
8.648
8.548
8.46
8.42
8.372
8.308
8.248
8.2
8.172
8.148
8.136
8.104
8.108
8.08
8.048
8.064
8.084
8.072
8.048
8.028
8.076
8.08
8.064
8.04
8.06
8.084
8.076
8.068
8.044
8.084
8.06
8.06
8.06
8.056
8.056
8.024
8.06
8.076
8.084
8.052
8.044
8.08
8.1
8.052
8.044
8.06
8.076
8.016
8.036
8.064
8.072
8.052
8.044
8.064
8.076
8.032
8.044
8.06
8.068
8.036
7.992
8.028
8.048
8.064
8.02
8.02
8.048
8.048
8.028
8.004
8.04
8.056
8.008
8.024
8.052
8.024
8.012
7.992
8.044
8.032
8.024
8.004
8.008
8.024
8.028
8.008
8.008
8.032
8.036
8.008
8.012
8.036
8.036
7.996
8.004
8.036
8.048
7.996
8
8.028
8.044
8.004
7.98
8.008
8.044
8.024
8
8.024
8.052
8.032
8.008
8.012
8.04
8.032
8.016
8.024
8.048
8.044
8.024
8.032
8.04
8.036
8.02
8.008
8.04
8.056
8.04
8.028
8.02
8.02
8.016
8.016
8.028
8.052
8.04
8.028
8.032
8.052
8.032
8.016
7.992
8.04
8.032
8.024
8.008
8.052
8.016
8.012
8.02
8.076
8.116
8.112
8.124
8.148
8.112
8.076
8.148
8.196
8.232
8.184
8.112
8.124
8.14
8.116
8.064
8.052
8.088
8.08
8.036
8.032
8.044
8.016
7.968
7.984
8.008
8.032
8.008
7.996
8.012
8.008
8.02
7.972
7.888
7.828
7.924
8.032
8.444
8.96
9.584
10.236
10.452
10.056
9.436
8.916
8.356
7.948
7.916
7.976
8.06
8.136
8.172
8.156
8.108
8.108
8.14
8.112
8.1
8.108
8.112
8.108
8.076
8.112
8.128
8.136
8.072
8.084
8.152
8.128
8.112
8.12
8.16
8.176
8.14
8.112
8.176
8.184
8.156
8.172
8.18
8.2
8.132
8.176
8.212
8.228
8.232
8.224
8.244
8.276
8.296
8.288
8.296
8.316
8.336
8.312
8.364
8.396
8.404
8.428
8.44
8.496
8.54
8.552
8.584
8.632
8.704
8.712
8.724
8.768
8.832
8.88
8.872
8.896
9.004
9.028
9.032
9.068
9.092
9.124
9.068
9.072
9.076
9.036
9.052
8.884
8.836
8.772
8.688
8.572
8.536
8.488
8.42
8.332
8.308
8.252
8.208
8.18
8.164
8.148
8.116
8.1
8.096
8.112
8.112
8.06
8.076
8.092
8.092
8.076
8.056
8.072
8.096
8.072
8.084
8.088
8.096
8.092
8.08
8.1
8.104
8.096
8.044
8.088
8.12
8.116
8.056
8.072
8.096
8.116
8.072
8.08
8.092
8.124
8.068
8.08
8.088
8.1
8.056
8.076
8.1
8.1
8.076
8.04
8.08
8.088
8.056
8.044
8.052
8.092
8.088
8.056
8.028
8.08
8.08
8.048
8.02
8.04
8.04
8.044
8.032
8.052
8.056
8.024
8.028
8.044
8.048
8.044
8.044
8.036
8.056
8.04
7.996
8.036
8.064
8.06
8.028
8.028
8.056
8.04
8.016
8.036
8.02
8.044
8.032
8.02
8.056
8.036
8.04
8.02
8.04
8.056
8.072
8.02
8.032
8.048
8.032
8.036
8.036
8.06
8.052
8.016
8.052
8.096
8.056
8.04
8.028
8.048
8.076
8.044
8.02
8.072
8.064
8.032
8.04
8.052
8.048
8.036
8.036
8.064
8.052
8.048
8.032
8.052
8.068
8.032
8.04
8.036
8.072
8.072
8.044
8.076
8.084
8.14
8.112
8.14
8.156
8.144
8.112
8.148
8.188
8.232
8.192
8.124
8.132
8.132
8.104
8.076
8.056
8.096
8.08
8.06
8.032
8.036
8.016
7.988
8.008
8.016
8.012
7.988
7.992
8.036
8.056
8
7.92
7.868
7.84
7.928
8.108
8.548
9.108
9.744
10.332
10.392
9.888
9.3
8.78
8.236
7.88
7.92
7.992
8.056
8.132
8.164
8.136
8.124
8.116
8.136
8.108
8.088
8.116
8.112
8.092
8.092
8.112
8.12
8.1
8.096
8.104
8.152
8.14
8.096
8.116
8.16
8.168
8.132
8.124
8.156
8.188
8.164
8.16
8.164
8.2
8.2
8.2
8.228
8.24
8.24
8.22
8.252
8.276
8.284
8.26
8.3
8.336
8.356
8.328
8.34
8.408
8.452
8.432
8.452
8.512
8.556
8.564
8.604
8.652
8.692
8.712
8.732
8.816
8.86
8.86
8.896
8.928
9.016
9.032
9.032
9.076
9.108
9.1
9.076
9.08
9.064
9.02
8.932
8.888
8.84
8.748
8.64
8.584
8.54
8.484
8.388
8.308
8.284
8.264
8.216
8.18
8.16
8.14
8.128
8.096
8.104
8.112
8.104
8.072
8.064
8.116
8.1
8.064
8.064
8.1
8.092
8.06
8.064
8.084
8.108
8.1
8.076
8.1
8.096
8.088
8.064
8.056
8.104
8.06
8.044
8.092
8.112
8.068
8.064
8.072
8.104
8.08
8.052
8.052
8.084
8.068
8.056
8.024
8.056
8.076
8.032
8.024
8.064
8.06
8.048
7.996
8.004
8.044
8.024
8
8.032
8.064
8.068
8.024
8.032
8.032
8.056
8.008
8.016
8.028
8.052
8.016
8.016
8.048
8.056
7.992
8.004
8.02
8.06
8.028
8
8.028
8.036
8.048
7.992
8.028
8.048
8.028
7.992
8
8.024
8.02
8.008
8.008
8.048
8.036
8.004
8
8.036
8.032
8.028
7.992
8.032
8.028
8.028
7.992
8.028
8.04
8.016
7.988
8.028
8.044
8.032
7.992
8.02
8.052
8.036
8.012
7.992
8.04
8.056
8.028
8.012
8.028
8.04
8.016
8.02
8.028
8.052
8.024
8
8.044
8.044
8.028
7.996
8.028
8.104
8.112
8.088
8.108
8.116
8.108
8.072
8.12
8.196
8.208
8.164
8.092
8.144
8.124
8.048
8.044
8.064
8.072
8.016
7.984
8.024
8.02
7.996
7.972
7.98
7.984
8.004
7.968
7.98
7.992
7.996
7.96
7.944
7.884
7.828
7.852
8.032
8.46
8.98
9.596
10.192
10.4
9.96
9.384
8.852
8.3
7.904
7.852
7.96
8.032
8.108
8.112
8.112
8.096
8.108
8.112
8.06
8.056
8.088
8.112
8.068
8.072
8.112
8.112
8.08
8.084
8.112
8.124
8.108
8.068
8.116
8.144
8.12
8.112
8.124
8.168
8.152
8.112
8.148
8.172
8.18
8.172
8.164
8.184
8.22
8.192
8.2
8.24
8.256
8.276
8.268
8.304
8.32
8.332
8.316
8.368
8.408
8.416
8.396
8.456
8.512
8.54
8.528
8.588
8.636
8.66
8.712
8.74
8.804
8.836
8.856
8.868
8.952
8.996
8.98
8.992
9.052
9.104
9.092
9.028
9.052
9.052
8.992
8.9
8.86
8.808
8.748
8.632
8.572
8.524
8.456
8.368
8.312
8.28
8.26
8.184
8.14
8.168
8.136
8.096
8.076
8.096
8.092
8.092
8.068
8.068
8.096
8.056
8.04
8.068
8.076
8.064
8.044
8.072
8.092
8.108
8.06
8.044
8.068
8.08
8.068
8.06
8.072
8.1
8.072
8.052
8.06
8.088
8.08
8.052
8.092
8.1
8.056
8.044
8.06
8.092
8.064
8.02
8.052
8.072
8.076
8.04
8.016
8.052
8.028
8.044
8.04
8.044
8.04
8.024
8.024
8.052
8.06
8.024
8.004
8.028
8.032
8.048
8.012
8.02
8.016
8.048
8.016
8.016
8.04
8.032
7.996
8.012
8.008
8.04
8.008
8.012
8.06
8.048
8.012
7.972
8.008
8.012
8.008
7.984
8.008
8.024
8.012
7.996
8.004
8.024
8.012
8.004
8.008
8.044
8.024
7.98
7.976
8.024
8.016
8.008
7.992
8.036
8.052
8.024
7.996
8.024
8.04
8.036
8.004
8
8.04
8.024
7.992
8.016
8.02
8.008
7.984
8.004
8.024
8.048
7.992
7.976
8.02
8
8.008
7.992
8.02
8.036
8.028
7.996
8.012
8.036
8.008
7.992
8.016
8.036
8.032
8.02
8.06
8.12
8.136
8.08
8.056
8.1
8.132
8.156
8.132
8.164
8.128
8.1
8.056
8.084
8.064
8.04
7.996
8.06
8.036
8.012
7.956
7.964
8
7.992
7.928
7.956
7.972
7.984
7.94
7.96
7.984
7.956
7.836
7.756
7.872
8.032
8.376
8.88
9.536
10.2
10.396
9.952
9.396
8.908
8.36
7.876
7.828
7.948
8.036
8.06
8.092
8.116
8.112
8.064
8.064
8.096
8.084
8.036
8.044
8.068
8.096
8.064
8.048
8.092
8.096
8.068
8.056
8.104
8.112
8.076
8.072
8.112
8.148
8.112
8.108
8.112
8.164
8.156
8.128
8.128
8.2
8.212
8.18
8.18
8.228
8.22
8.208
8.188
8.252
8.264
8.26
8.272
8.324
8.336
8.332
8.344
8.388
8.448
8.452
8.448
8.496
8.564
8.592
8.584
8.636
8.692
8.756
8.756
8.792
8.868
8.908
8.892
8.936
8.992
9.056
9.048
9.032
9.064
9.088
9.06
8.988
8.964
8.948
8.872
8.78
8.712
8.648
8.572
8.484
8.42
8.38
8.304
8.232
8.196
8.196
8.176
8.084
8.064
8.1
8.104
8.072
8.032
8.048
8.072
8.048
8.04
8.036
8.06
8.044
8.032
8.052
8.06
8.052
8.04
8.056
8.08
8.052
8.024
8.036
8.072
8.076
8.044
8.048
8.064
8.076
8.06
8.04
8.056
8.076
8.048
8.052
8.036
8.064
8.056
8.008
8.02
8.072
8.072
8.02
8
8.044
8.072
8.032
8.004
8.036
8.032
8.02
8.004
8.028
8.004
8.016
7.988
8.032
8.028
8.008
7.956
8.008
8.028
8.016
7.988
7.984
8.024
8.02
8
7.972
8.016
8.008
8
7.98
8.016
8.028
7.992
7.98
8
8.016
8.004
7.988
8
8.008
8
7.96
7.98
7.996
7.996
7.956
7.976
7.996
7.996
7.948
7.952
7.992
7.976
7.944
7.952
8
8.016
7.976
7.96
7.992
8.012
7.948
7.956
7.964
7.996
7.976
7.968
7.98
8
7.976
7.972
8.004
8
8
7.964
7.964
8.016
8.008
7.976
7.96
7.988
7.996
7.984
7.984
8.044
8.032
8.06
8.036
8.048
8.052
8.032
8.06
8.136
8.156
8.1
8.052
8.052
8.048
8.016
8
8.008
8.016
8.02
7.964
7.956
7.964
7.964
7.948
7.92
7.96
7.976
7.956
7.92
7.968
8
7.968
7.884
7.768
7.832
7.928
8.14
8.56
9.144
9.88
10.356
10.272
9.724
9.188
8.652
8.088
7.844
7.844
7.932
7.992
8.1
8.132
8.096
8.072
8.072
8.092
8.088
8.04
8.072
8.088
8.072
8.048
8.064
8.1
8.092
8.052
8.076
8.096
8.116
8.068
8.056
8.14
8.14
8.1
8.104
8.148
8.164
8.148
8.132
8.18
8.204
8.152
8.16
8.2
8.236
8.22
8.176
8.22
8.276
8.28
8.252
8.272
8.32
8.364
8.332
8.332
8.372
8.428
8.412
8.444
8.5
8.532
8.548
8.584
8.652
8.704
8.712
8.704
8.804
8.864
8.908
8.884
8.936
9.004
9.032
9.02
9.052
9.08
9.116
9.068
9.008
9.008
8.988
8.884
8.804
8.76
8.676
8.58
8.5
8.452
8.4
8.328
8.256
8.228
8.228
8.18
8.124
8.124
8.132
8.104
8.056
8.06
8.096
8.108
8.06
8.052
8.084
8.104
8.056
8.032
8.068
8.088
8.084
8.048
8.064
8.1
8.104
8.088
8.072
8.104
8.08
8.084
8.084
8.128
8.096
8.08
8.08
8.116
8.112
8.072
8.068
8.076
8.12
8.088
8.064
8.088
8.116
8.096
8.08
8.068
8.072
8.06
8.064
8.06
8.096
8.092
8.028
8.036
8.092
8.096
8.056
8.04
8.084
8.08
8.06
8.044
8.08
8.068
8.032
8.028
8.076
8.072
8.04
8.008
8.064
8.104
8.032
8.04
8.052
8.08
8.052
8.044
8.06
8.032
8.068
8.02
8.032
8.084
8.056
8.052
8.048
8.052
8.068
8.028
8.02
8.072
8.084
8.044
8.004
8.048
8.088
8.048
8.02
8.04
8.052
8.064
8.04
8.024
8.044
8.048
8.04
8.028
8.068
8.06
8.024
8
8.072
8.088
8.048
8.032
8.068
8.04
8.052
8.02
8.052
8.06
8.06
8.044
8.06
8.088
8.072
8.032
8.032
8.08
8.08
8.036
8.02
8.068
8.08
8.068
8.06
8.132
8.156
8.148
8.104
8.128
8.16
8.176
8.164
8.212
8.2
8.152
8.1
8.104
8.116
8.116
8.072
8.064
8.1
8.068
8.036
7.98
8.032
8.04
7.984
7.98
8.02
8.032
7.98
7.976
8.024
8.036
7.94
7.836
7.856
7.992
8.216
8.632
9.232
9.956
10.444
10.312
9.732
9.208
8.688
8.12
7.844
7.988
8.048
8.116
8.128
8.184
8.172
8.104
8.076
8.116
8.124
8.104
8.088
8.112
8.112
8.1
8.104
8.104
8.124
8.12
8.12
8.096
8.148
8.148
8.124
8.108
8.18
8.16
8.14
8.116
8.188
8.212
8.196
8.16
8.18
8.2
8.224
8.208
8.22
8.236
8.26
8.264
8.268
8.324
8.288
8.284
8.324
8.4
8.376
8.364
8.38
8.472
8.508
8.492
8.5
8.556
8.616
8.624
8.652
8.72
8.748
8.776
8.792
8.872
8.932
8.948
8.964
9
9.08
9.104
9.072
9.088
9.1
9.112
9.036
8.988
8.988
8.94
8.852
8.752
8.692
8.644
8.532
8.468
8.44
8.368
8.3
8.232
8.196
8.208
8.192
8.14
8.116
8.136
8.136
8.092
8.06
8.108
8.1
8.068
8.04
8.092
8.108
8.072
8.032
8.1
8.112
8.076
8.052
8.092
8.08
8.1
8.056
8.088
8.124
8.1
8.072
8.08
8.072
8.1
8.044
8.08
8.104
8.1
8.068
8.052
8.088
8.104
8.06
8.036
8.068
8.096
8.068
8.032
8.068
8.052
8.052
8.052
8.064
8.076
8.056
8.02
8.044
8.08
8.064
8.016
8.028
8.068
8.072
8.04
8.024
8.06
8.076
8.036
8.016
8.056
8.056
8.044
8.024
8.052
8.068
8.04
8.016
8.036
8.056
8.02
8.004
8.02
8.04
8.04
8.028
7.996
8.044
8.044
8.032
8
8.032
8.06
8.024
8
8.04
8.052
8.02
7.98
8.028
8.056
8.036
7.996
8.02
8.06
8.044
8.008
8.008
8.052
8.024
8.028
8.008
8.048
8.036
8.008
8
8.056
8.052
8.004
7.984
8.056
8.08
8.016
7.98
8.032
8.048
8.028
7.996
8.02
8.052
8.028
7.996
8.012
8.024
8.04
8.008
8.016
8.048
8.044
8.004
8.008
8.06
8.02
8.004
8.032
8.012
8.052
8.04
8.032
8.056
8.044
8.048
8.02
8.044
8.088
8.1
8.092
8.112
8.132
8.12
8.06
8.12
8.2
8.204
8.176
8.108
8.128
8.108
8.064
8.06
8.076
8.092
8.06
8.016
8.056
8.02
8.008
7.948
7.988
8.02
8.012
7.956
7.96
8.012
8.048
7.984
7.952
7.888
7.836
7.888
8.036
8.436
8.972
9.564
10.24
10.48
10.028
9.42
8.892
8.356
7.968
7.864
7.944
8.064
8.136
8.128
8.124
8.092
8.12
8.112
8.092
8.068
8.104
8.108
8.068
8.068
8.092
8.124
8.08
8.064
8.116
8.132
8.112
8.08
8.108
8.124
8.128
8.092
8.124
8.168
8.148
8.12
8.152
8.172
8.18
8.168
8.156
8.204
8.24
8.208
8.164
8.24
8.26
8.256
8.24
8.276
8.292
8.292
8.288
8.34
8.392
8.388
8.412
8.448
8.508
8.524
8.52
8.568
8.652
8.676
8.696
8.7
8.788
8.844
8.856
8.868
8.94
8.98
8.984
9.016
9.084
9.08
9.08
9.036
9.092
9.064
8.992
8.908
8.868
8.844
8.756
8.648
8.572
8.54
8.452
8.36
8.276
8.276
8.244
8.148
8.136
8.148
8.148
8.064
8.064
8.08
8.108
8.032
8.012
8.036
8.06
8.052
8.004
8.024
8.052
8.048
8.016
8.012
8.056
8.028
8.032
8.024
8.068
8.052
8.036
8.004
8.064
8.056
8.036
8.012
8.052
8.068
8.044
8.012
8.044
8.072
8.04
8.016
8.04
8.064
8.024
8.004
8
8.04
8.028
7.984
7.984
8.036
8.028
8.012
7.972
8.016
8.028
7.984
7.988
8.004
8.004
7.988
7.988
7.992
8.008
7.996
7.96
7.952
8.012
7.992
7.956
7.952
7.98
8.004
7.948
7.948
7.984
8.004
7.972
7.952
7.972
7.964
7.96
7.912
7.976
7.972
7.944
7.928
7.972
8.012
7.972
7.944
7.948
7.98
7.944
7.948
7.964
7.968
7.968
7.94
7.932
7.972
7.984
7.952
7.952
8
7.988
7.94
7.948
7.968
7.96
7.96
7.932
7.952
7.968
7.968
7.948
7.964
7.988
7.976
7.94
7.936
7.976
7.968
7.952
7.948
7.98
7.96
7.94
7.932
7.976
8
7.944
7.92
7.972
7.996
7.964
7.948
7.94
7.956
7.948
7.936
7.956
7.98
7.972
7.992
8.004
8.056
8.06
7.98
7.984
8.024
8.1
8.088
8.06
8.072
8.052
8.032
7.984
8.008
8.028
7.984
7.976
7.992
7.988
7.964
7.912
7.896
7.952
7.92
7.904
7.912
7.936
7.944
7.896
7.908
7.932
7.864
7.728
7.716
7.884
8.2
8.62
9.236
9.972
10.364
10.124
9.54
9.048
8.556
7.984
7.748
7.804
7.948
8.024
8.032
8.048
8.088
8.036
8
8.016
8.052
8.056
8.02
8.012
8.048
8.068
8.02
8.016
8.06
8.06
8.032
8.036
8.04
8.092
8.068
8.052
8.076
8.1
8.076
8.08
8.104
8.132
8.128
8.084
8.096
8.156
8.164
8.16
8.144
8.18
8.216
8.188
8.192
8.232
8.268
8.244
8.248
8.288
8.332
8.34
8.332
8.352
8.428
8.468
8.432
8.472
8.564
8.6
8.592
8.624
8.688
8.76
8.748
8.784
8.844
8.896
8.896
8.936
9
9.052
9.02
9.012
9.044
9.068
9.02
8.948
8.904
8.896
8.796
8.704
8.616
8.572
8.492
8.404
8.34
8.288
8.28
8.2
8.156
8.164
8.132
8.084
8.044
8.064
8.088
8.052
8.044
8.044
8.056
8.032
8.024
8.016
8.04
8.072
8.036
8.024
8.056
8.052
8.036
8.036
8.088
8.068
8.032
8.02
8.044
8.076
8.032
8.008
8.04
8.044
8.032
8.04
8.036
8.076
8.036
8.016
8.008
8.064
8.044
8.012
8.012
8.04
8.04
7.992
7.992
8.032
8.016
8
7.972
8.016
8.044
8
7.98
8.008
8.008
7.976
7.98
7.992
8.028
7.992
7.976
7.996
8.028
8.012
7.98
7.98
8.012
7.988
7.952
7.956
7.988
8
7.964
7.988
7.996
8.016
7.968
7.968
7.996
8.02
7.992
7.964
7.992
8.016
8.004
7.952
7.956
8.016
8.008
7.964
7.964
7.996
7.98
7.98
7.968
7.988
8.004
7.952
7.98
8
8.016
7.98
7.96
8.004
8.032
7.992
7.976
7.988
7.996
7.984
7.98
7.988
8.008
8.004
7.984
8.044
8.084
8.096
8.064
8.06
8.064
8.096
8.108
8.116
8.152
8.156
8.08
8.044
8.06
8.044
8.012
8.028
8.028
8.036
7.996
7.972
7.968
7.98
7.964
7.928
7.928
7.972
7.972
7.94
7.928
7.96
7.988
7.92
7.816
7.78
7.892
8.052
8.396
8.932
9.572
10.212
10.396
9.972
9.4
8.836
8.26
7.872
7.884
7.972
8.004
8.076
8.144
8.128
8.068
8.06
8.084
8.084
8.052
8.06
8.06
8.096
8.064
8.056
8.056
8.092
8.084
8.052
8.084
8.104
8.108
8.068
8.1
8.108
8.144
8.108
8.132
8.152
8.148
8.112
8.136
8.176
8.18
8.156
8.16
8.192
8.244
8.208
8.196
8.232
8.292
8.264
8.236
8.284
8.328
8.328
8.34
8.332
8.408
8.42
8.428
8.472
8.556
8.556
8.564
8.596
8.688
8.724
8.732
8.748
8.812
8.88
8.884
8.9
8.948
9.024
9
9.004
9.068
9.088
9.056
9
9.008
8.964
8.904
8.796
8.732
8.7
8.62
8.512
8.452
8.412
8.332
8.268
8.216
8.18
8.188
8.132
8.084
8.116
8.088
8.048
8.044
8.048
8.084
8.048
8.016
8.016
8.052
8.04
8.028
8.008
8.044
8.028
8.04
8.036
8.052
8.076
8.052
8.04
8.08
8.068
8.06
8.024
8.064
8.088
8.06
8.028
8.056
8.084
8.076
8.048
8.044
8.056
8.068
8.016
8.044
8.052
8.056
8.008
8.036
8.052
8.06
8.02
8.024
8.012
8.056
8.024
8.008
8.028
8.048
8.02
7.996
8.008
8.024
8.012
8
8.008
8.036
8.02
7.992
7.996
8.02
8.04
8
7.984
8.008
8.024
8.016
7.992
7.996
8.032
7.996
7.976
8.008
8.012
7.988
7.996
7.992
8.032
8.016
7.992
7.992
8.024
8.032
7.984
7.996
8.024
8.028
8
7.988
8.016
8.012
7.996
7.992
8.004
8.028
7.972
7.98
8.008
8.024
7.976
7.96
8.008
8.036
8.032
7.976
7.988
8.004
8.024
7.972
7.988
8.024
7.992
7.98
7.988
8.008
8.032
7.968
7.996
8.004
8.02
7.996
7.98
8.004
8.024
8.004
7.996
7.984
8.016
8.024
7.992
8.016
8.02
8.02
8
8.008
8.032
8
7.996
8.024
8.076
8.084
8.076
8.1
8.084
8.112
8.064
8.128
8.168
8.188
8.14
8.112
8.108
8.108
8.056
8.028
8.04
8.052
8.016
8.02
7.976
7.98
7.996
7.94
7.956
7.972
8.008
7.976
7.956
7.984
8.012
7.976
7.932
7.872
7.844
7.912
8.12
8.548
9.132
9.76
10.316
10.376
9.844
9.3
8.732
8.192
7.892
7.94
8.004
8.052
8.124
8.152
8.104
8.08
8.092
8.108
8.084
8.048
8.1
8.116
8.096
8.06
8.08
8.112
8.092
8.076
8.1
8.116
8.132
8.104
8.096
8.152
8.14
8.128
8.132
8.164
8.176
8.16
8.14
8.16
8.208
8.18
8.172
8.212
8.24
8.22
8.22
8.22
8.272
8.26
8.272
8.288
8.336
8.344
8.332
8.372
8.38
8.436
8.4
8.452
8.504
8.576
8.556
8.584
8.64
8.708
8.736
8.748
8.8
8.856
8.88
8.888
8.944
9.008
9.016
9.036
9.064
9.104
9.08
9.052
9.056
9.04
9.028
8.9
8.848
8.82
8.748
8.644
8.572
8.52
8.436
8.38
8.288
8.272
8.24
8.192
8.132
8.128
8.136
8.096
8.064
8.064
8.088
8.084
8.052
8.044
8.088
8.084
8.04
8.016
8.056
8.08
8.048
8.032
8.052
8.076
8.068
8.032
8.052
8.092
8.06
8.044
8.044
8.072
8.088
8.048
8.06
8.076
8.072
8.068
8.056
8.072
8.076
8.044
8.02
8.076
8.072
8.04
8.008
8.06
8.072
8.04
8.008
8.028
8.068
8.032
7.996
8.028
8.052
8.032
8.004
8.032
8.036
8.028
8
7.984
8.032
8.032
7.976
7.972
8.004
8.044
8.004
7.976
7.988
8.04
7.992
8
8.004
8.032
7.988
7.968
8.012
8.024
8.004
7.984
8.004
8.008
8.024
7.984
7.98
7.988
8.02
7.972
7.976
7.984
8
7.996
7.992
7.992
7.996
7.972
7.972
8
8.004
7.992
7.98
7.976
8.008
8.02
7.984
7.968
8.008
8
7.972
7.976
7.98
8
7.972
7.98
7.992
8.004
7.98
7.96
7.996
8.02
7.992
7.976
8.008
8
8.016
7.96
7.992
8.016
8.02
7.976
7.984
8.004
8.008
7.968
7.988
8.008
8.016
7.964
7.988
8.032
8.088
8.04
8.048
8.052
8.072
8.052
8.096
8.124
8.148
8.112
8.076
8.08
8.076
8.044
8.008
8.02
8.028
8.032
7.968
7.96
7.96
7.996
7.928
7.92
7.952
7.992
7.948
7.916
7.96
7.984
7.948
7.888
7.788
7.768
7.876
8.056
8.452
9.052
9.696
10.24
10.304
9.844
9.272
8.752
8.196
7.856
7.828
7.908
7.988
8.076
8.084
8.064
8.06
8.08
8.08
8.036
8.016
8.048
8.076
8.044
8.036
8.056
8.068
8.068
8.048
8.06
8.052
8.092
8.064
8.08
8.092
8.108
8.064
8.084
8.12
8.12
8.116
8.116
8.148
8.188
8.152
8.136
8.172
8.192
8.208
8.188
8.188
8.212
8.224
8.248
8.24
8.288
8.296
8.28
8.312
8.364
8.412
8.388
8.392
8.464
8.524
8.54
8.536
8.612
8.66
8.692
8.716
8.768
8.808
8.84
8.884
8.932
8.992
8.996
9.028
9.06
9.12
9.088
9.076
9.036
9.032
8.996
8.932
8.84
8.804
8.712
8.6
8.528
8.46
8.42
8.328
8.268
8.256
8.196
8.16
8.128
8.112
8.104
8.08
8.024
8.024
8.056
8.08
8.032
8.028
8.036
8.064
8.02
8.016
8.044
8.068
8.036
8.012
8.032
8.06
8.036
8.036
8.048
8.06
8.056
8.012
8.036
8.068
8.084
8.036
8.028
8.032
8.044
8.02
8.016
8.04
8.04
8.024
8.02
8.064
8.06
8.024
7.996
8.032
8.048
8.008
7.996
8.02
8.044
8.028
8.016
8.012
8.008
8.004
7.988
8.012
8.028
8.004
7.992
7.98
8.024
8.02
7.964
7.984
8.012
8.024
8
7.972
8.012
8.008
7.988
7.996
7.976
8.016
7.98
7.988
7.992
8.004
7.992
7.968
7.992
8.004
8.016
7.984
7.976
8.012
8.02
8.004
7.976
8
8.016
7.976
7.956
8.008
8.012
8.004
7.988
8.052
8.1
8.1
8.048
8.044
8.088
8.112
8.112
8.132
8.136
8.116
8.064
8.04
8.048
8.028
8.028
8.008
8.032
8.016
7.984
7.952
7.936
7.964
7.932
7.924
7.948
7.984
7.96
7.94
7.932
7.964
7.948
7.84
7.792
7.836
7.956
8.264
8.748
9.364
10.08
10.404
10.124
9.532
9.028
8.48
7.928
7.788
7.916
7.988
8.028
8.084
8.112
8.092
8.064
8.068
8.08
8.064
8.044
8.06
8.072
8.092
8.02
8.052
8.08
8.112
8.056
8.056
8.104
8.112
8.108
8.068
8.108
8.124
8.104
8.112
8.136
8.14
8.148
8.112
8.152
8.184
8.2
8.152
8.188
8.232
8.22
8.212
8.22
8.24
8.288
8.268
8.284
8.304
8.328
8.328
8.336
8.38
8.432
8.428
8.448
8.52
8.564
8.604
8.58
8.644
8.7
8.732
8.768
8.816
8.868
8.888
8.924
8.964
8.98
9.036
9.008
9.052
9.072
9.068
9.028
8.956
8.952
8.916
8.824
8.7
8.648
8.588
8.524
8.444
8.388
8.328
8.26
8.216
8.192
8.18
8.16
8.092
8.08
8.104
8.1
8.064
8.02
8.04
8.072
8.064
8.04
8.076
8.084
8.044
8.032
8.06
8.072
8.056
8.036
8.076
8.084
8.084
8.044
8.064
8.088
8.112
8.064
8.052
8.084
8.096
8.068
8.072
8.088
8.088
8.06
8.072
8.096
8.08
8.064
8.04
8.088
8.084
8.056
8.024
8.032
8.068
8.072
8.016
8.056
8.064
8.076
8.044
8.032
8.052
8.052
8.036
8.028
8.06
8.052
8.012
8.02
8.04
8.052
8.024
7.988
8.036
8.072
8.056
8.016
8
8.036
8.04
8.02
8.008
8.016
8.032
8.032
8.028
8.032
8.052
8.016
8.004
8.044
8.056
8
8
8.024
8.044
8.044
8
8.02
8.048
8.036
8.024
8.036
8.048
8.024
7.996
8.04
8.052
8.04
8.02
8.008
8.044
8.048
8.032
7.992
8.036
8.056
8.024
8.008
8.016
8.028
8.02
8.02
8.036
8.032
8.02
8.008
8.028
8.048
8.036
8.02
8.028
8.028
8.056
8.036
8.02
8.052
8.068
8.068
8.072
8.12
8.164
8.092
8.1
8.116
8.184
8.196
8.144
8.152
8.144
8.116
8.064
8.064
8.08
8.08
8.044
8.032
8.032
8.028
8.024
7.952
7.98
7.976
7.972
7.968
7.992
7.996
7.968
7.928
7.984
7.952
7.844
7.804
7.904
8.14
8.56
9.096
9.736
10.344
10.392
9.82
9.264
8.72
8.2
7.836
7.9
8.012
8.096
8.1
8.1
8.112
8.124
8.064
8.064
8.068
8.1
8.076
8.064
8.072
8.084
8.072
8.072
8.076
8.092
8.08
8.076
8.08
8.104
8.116
8.092
8.072
8.148
8.144
8.12
8.12
8.16
8.168
8.136
8.156
8.188
8.18
8.192
8.184
8.224
8.24
8.252
8.22
8.26
8.276
8.288
8.308
8.3
8.336
8.38
8.376
8.396
8.448
8.484
8.492
8.512
8.56
8.608
8.608
8.656
8.724
8.764
8.792
8.804
8.896
8.944
8.944
8.96
9.008
9.04
9.096
9.08
9.076
9.096
9.064
9.004
8.972
8.928
8.832
8.748
8.688
8.644
8.584
8.476
8.392
8.36
8.308
8.276
8.18
8.188
8.164
8.144
8.12
8.12
8.108
8.1
8.072
8.08
8.1
8.092
8.044
8.048
8.096
8.08
8.06
8.048
8.064
8.096
8.076
8.032
8.088
8.076
8.076
8.052
8.068
8.088
8.076
8.064
8.072
8.08
8.064
8.06
8.068
8.088
8.08
8.048
8.048
8.072
8.068
8.052
8.032
8.072
8.048
8.036
8.016
8.052
8.044
8.048
8.032
8.04
8.06
8.032
8.004
8.036
8.06
8.052
8.004
7.996
8.036
8.04
8.02
8.008
8.004
8.04
7.996
8.016
8.036
8.04
8.012
7.976
8.02
8.04
8.004
7.976
8.004
8.04
8.012
7.996
7.996
8.004
8.012
8.012
8.008
8.024
8.012
7.992
8.004
8.008
8.012
8.004
8
8.016
8.028
8.024
7.976
8.016
8.016
8.008
7.98
8.008
8.016
