8.204
8.156
8.12
8.172
8.188
8.172
8.132
8.18
8.236
8.204
8.124
8.184
8.256
8.22
8.144
8.176
8.276
8.264
8.22
8.204
8.284
8.344
8.3
8.3
8.364
8.4
8.388
8.36
8.448
8.536
8.488
8.464
8.524
8.604
8.596
8.568
8.62
8.684
8.696
8.652
8.656
8.728
8.692
8.632
8.612
8.648
8.644
8.56
8.484
8.516
8.512
8.44
8.332
8.352
8.36
8.312
8.208
8.232
8.248
8.2
8.164
8.164
8.236
8.188
8.116
8.12
8.18
8.188
8.136
8.116
8.184
8.188
8.156
8.124
8.196
8.216
8.184
8.148
8.216
8.208
8.168
8.112
8.172
8.232
8.192
8.128
8.176
8.244
8.2
8.152
8.156
8.212
8.216
8.156
8.132
8.204
8.208
8.144
8.144
8.192
8.204
8.16
8.104
8.156
8.236
8.176
8.12
8.152
8.188
8.188
8.128
8.152
8.224
8.192
8.132
8.164
8.192
8.164
8.14
8.104
8.184
8.176
8.14
8.112
8.18
8.212
8.164
8.124
8.164
8.188
8.136
8.092
8.136
8.176
8.152
8.08
8.12
8.196
8.164
8.112
8.12
8.184
8.144
8.108
8.116
8.152
8.132
8.088
8.072
8.14
8.176
8.104
8.084
8.152
8.192
8.112
8.096
8.1
8.176
8.116
8.056
8.068
8.124
8.104
8.104
8.108
8.164
8.148
8.088
8.092
8.148
8.124
8.076
8.076
8.168
8.2
8.152
8.136
8.204
8.248
8.236
8.212
8.284
8.324
8.28
8.264
8.28
8.344
8.292
8.204
8.244
8.32
8.244
8.072
8.04
8.116
8.112
8.04
8.008
8.08
8.104
8.052
8
8.044
8.052
8.016
7.968
8.012
8.04
7.936
7.848
7.82
7.928
8.336
9.04
9.944
10.9
10.868
10.248
9.868
9.624
9.128
8.632
8.3
8.212
8.204
8.144
8.084
8.092
8.1
8.024
7.972
7.996
8.032
7.996
7.952
7.98
8.024
7.992
7.968
7.968
8.012
8.004
7.952
7.936
8
7.996
7.952
7.936
8.004
8.04
7.992
7.964
7.976
8.012
7.972
7.944
8.004
8.036
8.02
7.956
8.028
8.056
8.056
7.948
8
8.1
8.1
8.048
8.048
8.14
8.14
8.092
8.064
8.14
8.212
8.172
8.164
8.232
8.28
8.26
8.2
8.304
8.372
8.348
8.308
8.364
8.456
8.46
8.408
8.44
8.496
8.508
8.484
8.456
8.496
8.472
8.404
8.376
8.396
8.368
8.252
8.196
8.208
8.224
8.112
8.024
8.028
8.068
8.004
7.94
7.936
8.004
7.952
7.912
7.936
7.98
7.96
7.912
7.892
7.936
7.96
7.888
7.876
7.948
7.976
7.936
7.9
7.924
7.96
7.912
7.888
7.912
7.952
7.952
7.896
7.956
7.988
7.968
7.892
7.904
7.964
7.98
7.928
7.924
7.972
7.976
7.956
7.92
7.968
7.972
7.92
7.892
7.968
8.016
7.936
7.904
7.928
7.992
7.916
7.88
7.912
7.992
7.944
7.892
7.916
7.972
7.952
7.92
7.924
7.956
7.968
7.916
7.912
7.972
7.972
7.92
7.912
7.948
7.988
7.948
7.896
7.912
7.964
7.944
7.876
7.908
7.968
7.932
7.908
7.916
7.944
7.936
7.884
7.852
7.928
7.924
7.892
7.848
7.904
7.94
7.904
7.86
7.9
7.932
7.88
7.844
7.896
7.96
7.916
7.848
7.88
7.948
7.916
7.88
7.888
7.94
7.92
7.864
7.872
7.948
7.94
7.924
7.952
8.012
8.056
8.028
8.04
8.14
8.164
8.104
8.06
8.088
8.168
8.108
8.036
8.068
8.096
8.108
8.028
7.936
7.936
7.948
7.888
7.9
7.928
7.928
7.868
7.864
7.892
7.924
7.872
7.824
7.872
7.912
7.876
7.764
7.764
7.78
7.68
7.96
8.712
9.684
10.612
10.876
10.336
9.968
9.644
9.076
8.584
8.268
8.132
8.056
8.016
8.044
7.98
7.928
7.848
7.896
7.892
7.848
7.82
7.856
7.88
7.848
7.796
7.816
7.904
7.872
7.816
7.82
7.876
7.86
7.816
7.836
7.884
7.892
7.824
7.816
7.888
7.904
7.84
7.828
7.884
7.94
7.864
7.856
7.888
7.94
7.936
7.904
7.924
7.956
7.956
7.904
7.916
8.008
7.988
7.964
7.996
8.08
8.096
8.056
8.024
8.104
8.16
8.128
8.148
8.204
8.268
8.244
8.228
8.296
8.364
8.332
8.328
8.392
8.476
8.448
8.42
8.408
8.48
8.46
8.368
8.34
8.364
8.352
8.28
8.212
8.228
8.208
8.116
8.048
8.06
8.044
7.98
7.916
7.944
7.976
7.944
7.868
7.884
7.94
7.936
7.88
7.88
7.944
7.912
7.856
7.88
7.944
7.944
7.876
7.896
7.96
7.964
7.888
7.852
7.896
7.972
7.924
7.832
7.92
7.952
7.916
7.86
7.908
7.936
7.908
7.848
7.912
7.968
7.936
7.884
7.872
7.964
7.952
7.916
7.876
7.944
7.94
7.904
7.876
7.928
7.944
7.92
7.876
7.936
7.96
7.908
7.872
7.904
7.984
7.936
7.88
7.9
7.968
7.952
7.892
7.896
7.956
7.948
7.9
7.892
7.928
7.96
7.916
7.896
7.924
7.984
7.9
7.884
7.94
7.98
7.952
7.892
7.908
7.984
7.932
7.908
7.928
7.984
7.948
7.88
7.924
7.984
7.968
7.92
7.884
7.956
7.984
7.924
7.884
7.964
7.984
7.948
7.912
7.92
7.968
7.952
7.908
7.92
7.992
7.972
7.92
7.92
8.028
8.008
7.988
8.016
8.084
8.076
8.044
8.064
8.152
8.168
8.124
8.116
8.152
8.18
8.112
8.08
8.132
8.168
8.108
8.024
8.012
8.036
8.012
7.94
7.948
8.012
7.972
7.912
7.928
7.98
7.968
7.9
7.912
7.964
7.972
7.908
7.824
7.836
7.856
7.76
8
8.652
9.576
10.5
10.88
10.4
9.98
9.664
9.12
8.688
8.336
8.184
8.064
8.068
8.12
8.064
7.964
7.932
7.952
7.972
7.944
7.92
7.932
7.964
7.948
7.904
7.944
7.964
7.944
7.9
7.828
8.02
7.98
7.932
7.952
8.02
8
7.96
7.94
8.008
8.016
7.98
7.984
8.036
8.044
7.992
7.98
8.044
8.068
8.004
7.976
8.06
8.112
8.064
8.028
8.084
8.16
8.144
8.104
8.12
8.2
8.212
8.196
8.228
8.288
8.308
8.272
8.288
8.352
8.412
8.388
8.368
8.44
8.504
8.492
8.464
8.524
8.6
8.6
8.568
8.608
8.648
8.608
8.56
8.556
8.568
8.496
8.42
8.4
8.404
8.364
8.26
8.208
8.228
8.196
8.136
8.08
8.128
8.136
8.036
8.016
8.036
8.096
8.012
7.976
7.996
8.06
8.012
7.952
7.96
8.04
8.032
7.98
7.984
8.02
8.012
7.964
7.968
8.016
8.016
7.96
7.968
7.996
8.028
7.988
7.936
7.98
8.04
8.016
7.952
7.964
8.028
8
7.96
7.988
8.028
8.016
7.964
7.984
8.04
7.992
7.948
7.96
8.02
8.052
7.984
7.948
7.988
8.032
7.956
7.956
8.008
8.036
7.976
7.972
8
8.032
7.996
7.932
7.96
8.052
7.996
7.968
7.944
8.016
8.032
7.972
7.964
8.004
8.036
7.984
7.96
8.012
8.016
7.96
7.936
7.996
8.06
7.984
7.924
7.972
8.024
7.988
7.96
7.968
8.016
7.976
7.96
7.968
8.012
8.024
7.936
7.968
8.04
8.044
7.988
7.992
8.044
8.092
8.04
8.008
8.1
8.144
8.132
8.064
8.144
8.224
8.216
8.16
8.22
8.264
8.24
8.176
8.188
8.2
8.216
8.14
8.136
8.132
8.104
8.028
7.98
8.016
8.04
7.996
7.968
8.008
8.016
7.964
7.96
7.964
8.052
7.948
7.924
7.952
7.968
7.88
7.836
7.764
7.944
8.516
9.264
10.14
10.836
10.452
9.884
9.636
9.276
8.804
8.344
8.12
8.132
8.208
8.124
8.072
8.072
8.08
8.032
7.964
8.004
8.032
8
7.988
8.004
8.04
8.016
7.976
7.976
8.032
8.036
7.96
7.98
8.028
8.052
8.012
7.98
8.008
8.056
8.036
8.02
8.052
8.076
8.072
8.02
8.036
8.116
8.092
8.056
8.052
8.116
8.136
8.096
8.088
8.152
8.176
8.12
8.136
8.172
8.24
8.18
8.188
8.252
8.296
8.256
8.256
8.32
8.388
8.38
8.348
8.4
8.464
8.444
8.436
8.472
8.524
8.556
8.512
8.556
8.608
8.632
8.572
8.544
8.592
8.564
8.48
8.404
8.396
8.4
8.348
8.252
8.26
8.236
8.172
8.088
8.092
8.084
8.08
8.028
8.028
8.068
8.052
8
7.98
8.048
8.02
7.988
7.956
8.04
8.044
8.02
7.984
8.012
8.072
8.024
7.988
8.008
8.076
8.036
7.996
8.012
8.064
8.04
7.992
8.012
8.052
8.076
8.028
8.032
8.036
8.06
8.02
8.024
8.036
8.116
8.04
8.02
8.056
8.088
8.016
7.972
8.056
8.084
8.068
8.016
8.032
8.092
8.076
8.024
8.044
8.076
8.048
8.024
7.996
8.084
8.08
8.012
7.984
8.052
8.032
8.02
7.984
8.052
8.06
8.056
7.98
8.032
8.08
8.028
7.992
8.008
8.064
8.044
7.996
8.008
8.068
8.04
7.984
7.976
8.024
8.04
7.996
7.96
8.024
8.012
7.972
7.976
8.008
8.044
7.992
7.944
8.008
8.064
8.012
7.968
8.016
8.052
8.036
8.004
8.004
8.084
8.068
8.008
8.028
8.064
8.088
8.032
8.028
8.06
8.092
8.036
8.008
8.048
8.064
8.052
8.012
8.068
8.104
8.068
8.044
8.088
8.164
8.144
8.136
8.172
8.26
8.252
8.224
8.212
8.252
8.268
8.228
8.16
8.232
8.22
8.212
8.152
8.156
8.12
8.036
8.008
8.048
8.072
8.024
7.988
8.008
8.08
8.032
7.984
7.96
8.052
8.04
7.992
7.944
7.94
7.932
7.8
8.004
8.704
9.624
10.512
11.104
10.692
10.208
9.852
9.38
8.892
8.52
8.24
8.192
8.176
8.248
8.208
8.084
8.072
8.084
8.08
8.02
8.004
8.068
8.072
8.028
8.012
8.056
8.092
8.036
7.996
8.04
8.092
8.032
8.004
8.032
8.06
8.032
8
8.036
8.06
8.052
8.024
8.048
8.084
8.08
8.024
8.02
8.096
8.124
8.08
8.076
8.132
8.176
8.132
8.104
8.16
8.216
8.176
8.172
8.208
8.284
8.244
8.216
8.276
8.356
8.352
8.316
8.336
8.396
8.44
8.412
8.412
8.492
8.54
8.492
8.492
8.552
8.608
8.588
8.552
8.644
8.692
8.648
8.56
8.568
8.604
8.524
8.416
8.428
8.424
8.376
8.292
8.24
8.276
8.224
8.128
8.132
8.152
8.132
8.064
8.064
8.116
8.116
8.068
8.012
8.076
8.08
8.072
7.988
8.044
8.1
8.076
8.02
8.032
8.092
8.048
8.004
8.008
8.104
8.108
8.032
8.012
8.052
8.108
8.032
8.02
8.052
8.064
8.028
8.004
8.004
8.076
7.996
7.972
8.024
8.08
8.028
7.976
7.988
8.044
8.008
7.944
7.964
8.012
8.012
7.964
7.96
8.024
7.996
7.936
7.92
7.996
7.992
7.952
7.916
7.984
8.024
7.976
7.912
7.92
7.976
7.944
7.896
7.94
7.996
7.996
7.924
7.928
8.004
7.968
7.936
7.912
7.984
8
7.952
7.9
7.96
8
7.964
7.92
7.944
8
7.956
7.944
7.968
8.028
7.948
7.92
7.936
7.988
7.98
7.912
7.924
8.004
7.988
7.932
7.928
7.956
7.996
7.952
7.948
7.976
8.004
7.936
7.904
7.952
8
7.952
7.916
7.94
8.02
7.996
7.924
7.972
8.068
8.064
8.02
8.048
8.12
8.124
8.128
8.104
8.164
8.156
8.128
8.088
8.148
8.16
8.084
8.052
8.1
8.108
8.012
7.916
7.96
8.008
7.932
7.9
7.908
7.96
7.92
7.888
7.888
7.96
7.948
7.908
7.872
7.928
7.88
7.8
7.688
7.784
8.232
8.968
9.868
10.848
10.888
10.272
9.808
9.492
9.004
8.52
8.156
8.108
8.168
8.132
8.064
7.992
8.056
8.008
7.936
7.92
7.964
8.016
7.936
7.924
7.98
8.028
7.96
7.916
7.96
8.024
7.972
7.94
7.964
8.02
8.008
7.924
7.956
8.012
8.008
7.98
7.984
8.04
8.032
7.96
8.008
8.052
8.048
8.008
8.012
8.048
8.076
8.052
8.036
8.056
8.12
8.096
8.08
8.108
8.18
8.14
8.108
8.172
8.232
8.228
8.192
8.228
8.316
8.324
8.32
8.328
8.396
8.44
8.432
8.408
8.456
8.54
8.52
8.524
8.556
8.604
8.552
8.528
8.564
8.568
8.496
8.428
8.404
8.44
8.384
8.272
8.248
8.252
8.216
8.144
8.096
8.14
8.128
8.068
8.036
8.06
8.08
8.028
7.98
8.036
8.072
8.056
7.976
8.032
8.068
8.04
8.016
8.02
8.084
8.068
8.016
8.036
8.092
8.076
8.032
8.036
8.084
8.092
8.04
8.02
8.08
8.116
8.044
8.032
8.084
8.12
8.076
8.036
8.096
8.164
8.108
8.048
8.06
8.144
8.104
8.048
8.052
8.128
8.128
8.064
8.072
8.108
8.112
8.072
8.064
8.104
8.112
8.092
8.068
8.092
8.132
8.096
8.04
8.08
8.128
8.104
8.06
8.072
8.124
8.108
8.04
8.044
8.132
8.1
8.06
8.032
8.112
8.092
8.06
8.028
8.092
8.108
8.068
8.012
8.04
8.112
8.072
8.012
8.024
8.1
8.064
8.028
8.04
8.068
8.068
8.016
8.028
8.104
8.068
8.004
7.992
8.052
8.052
8.016
8.004
8.008
8.064
8.016
7.98
8.04
8.064
8.032
7.984
8.024
8.08
8.032
7.996
8.024
8.088
8.064
8.036
8.048
8.136
8.176
8.132
8.128
8.216
8.212
8.192
8.192
8.22
8.252
8.192
8.164
8.216
8.216
8.168
8.136
8.148
8.152
8.06
8.012
8.016
8.096
8.04
7.988
8
8.048
8.036
7.98
7.976
8.064
8.072
8.008
7.984
8.028
7.996
7.932
7.836
7.904
8.44
9.124
10.012
10.888
10.828
10.228
9.816
9.472
9.024
8.576
8.244
8.188
8.204
8.216
8.148
8.072
8.116
8.112
8.056
8.028
8.072
8.116
8.06
8.032
8.024
8.092
8.036
7.976
8.052
8.1
8.064
7.996
8.04
8.104
8.112
8.052
8.052
8.112
8.088
8.052
8.068
8.112
8.124
8.076
8.044
8.096
8.132
8.08
8.04
8.096
8.156
8.1
8.072
8.128
8.184
8.144
8.1
8.136
8.204
8.2
8.148
8.18
8.256
8.24
8.232
8.252
8.32
8.352
8.32
8.316
8.396
8.456
8.428
8.392
8.452
8.504
8.48
8.444
8.512
8.584
8.536
8.512
8.496
8.528
8.488
8.388
8.372
8.348
8.308
8.232
8.196
8.204
8.188
8.12
8.088
8.072
8.076
8.004
7.972
8.012
8.024
7.996
7.96
8.008
8.028
8.012
7.912
7.952
8.024
7.996
7.976
8.004
8.052
8.048
7.98
7.976
8.016
8.008
7.984
8
8.04
8.072
8.02
8.004
8.052
8.112
8.06
8.012
8.048
8.096
8.056
8.02
8.048
8.104
8.064
8.004
8.028
8.084
8.052
7.952
7.992
8.064
8.1
8.004
7.992
8.028
8.092
8.04
7.992
8.024
8.012
7.98
7.928
7.956
8.04
7.968
7.952
8
8.044
8.02
7.972
7.96
8.012
8.02
7.964
7.94
7.984
8.016
7.972
7.964
8.012
8.032
7.964
7.916
7.996
8.024
7.968
7.932
7.98
8.032
8.004
7.96
7.956
8.012
7.988
7.944
7.964
7.996
7.992
7.944
7.932
7.996
8.004
7.952
7.932
7.968
8.004
7.944
7.916
7.952
8.016
7.952
7.924
7.96
8.012
7.972
7.944
7.98
8.064
8.056
8.008
8.04
8.132
8.144
8.092
8.108
8.18
8.188
8.144
8.088
8.132
8.144
8.12
8.088
8.132
8.116
7.98
7.912
7.96
8.008
7.952
7.892
7.904
7.98
7.948
7.908
7.9
7.94
7.94
7.916
7.928
7.944
7.88
7.816
7.74
7.9
8.496
9.272
10.168
11.036
10.804
10.192
9.78
9.44
8.936
8.46
8.14
8.12
8.188
8.148
8.076
8.076
8.092
8.044
7.972
7.968
8.008
8.04
8
7.972
8
8.044
7.992
7.948
8.004
8.04
8
7.972
8.012
8.048
8.012
7.952
7.996
8.044
8.036
7.98
8.012
8.064
8.072
8.028
8.04
8.096
8.108
8.096
8.064
8.132
8.144
8.108
8.084
8.164
8.196
8.18
8.136
8.172
8.26
8.24
8.196
8.228
8.308
8.288
8.292
8.316
8.392
8.408
8.372
8.396
8.46
8.496
8.452
8.492
8.548
8.612
8.572
8.568
8.616
8.66
8.636
8.576
8.592
8.632
8.56
8.476
8.46
8.464
8.388
8.296
8.272
8.304
8.264
8.16
8.104
8.14
8.16
8.084
8.032
8.08
8.104
8.068
8.028
8.068
8.108
8.04
8.02
8.052
8.112
8.076
8.032
8.052
8.116
8.092
8.028
8.052
8.108
8.104
8.068
8.032
8.12
8.124
8.08
8.048
8.092
8.144
8.064
8.024
8.092
8.132
8.092
8.048
8.096
8.136
8.092
8.04
8.048
8.108
8.104
8.064
8.048
8.108
8.084
8.04
8.016
8.1
8.092
8.04
8.004
8.06
8.104
8.064
8.024
8.036
8.116
8.064
8.02
8.044
8.12
8.04
8.016
8.044
8.116
8.08
8.004
8.024
8.072
8.088
8
8.028
8.08
8.076
8.056
8.004
8.064
8.08
8.032
8.02
8.068
8.084
8.032
7.996
8.052
8.088
8.036
8.02
8.036
8.108
8.076
8.032
8.024
8.092
8.072
8.02
8.036
8.092
8.08
8.044
8.028
8.084
8.1
8.06
8.004
8.072
8.108
8.076
8
8.036
8.084
8.076
8.02
8.024
8.088
8.04
8
8.052
8.128
8.1
8.06
8.096
8.168
8.196
8.16
8.16
8.232
8.276
8.244
8.216
8.252
8.292
8.204
8.172
8.212
8.256
8.212
8.168
8.152
8.164
8.092
8.04
8.036
8.084
8.056
8.008
8.012
8.084
8.08
8.04
7.996
8.068
8.088
8.04
7.968
7.972
7.988
7.868
7.956
8.552
9.42
10.372
11.096
10.772
10.248
9.872
9.404
8.916
8.516
8.292
8.216
8.204
8.24
8.22
8.128
8.084
8.128
8.132
8.064
8.04
8.084
8.116
8.076
8.028
8.072
8.116
8.052
8.044
8.072
8.092
8.068
8.02
8.052
8.108
8.116
8.064
8.04
8.12
8.116
8.088
8.064
8.144
8.132
8.112
8.08
8.128
8.172
8.128
8.088
8.16
8.224
8.192
8.16
8.144
8.236
8.236
8.192
8.212
8.284
8.268
8.244
8.264
8.32
8.348
8.348
8.324
8.404
8.468
8.452
8.392
8.464
8.556
8.532
8.528
8.556
8.644
8.608
8.568
8.596
8.672
8.624
8.58
8.584
8.584
8.536
8.42
8.424
8.448
8.412
8.3
8.24
8.244
8.252
8.156
8.104
8.12
8.144
8.108
8.036
8.06
8.092
8.048
8.012
8.044
8.108
8.06
7.988
8.032
8.068
8.088
8.036
8.02
8.076
8.032
8.016
8
8.056
8.108
8.084
8.044
8.084
8.144
8.088
8.036
8.072
8.136
8.108
8.06
8.06
8.096
8.064
8.044
8.036
8.1
8.072
8.04
8.024
8.092
8.076
8.036
8.012
8.096
8.088
8.028
8.016
8.052
8.104
8.028
7.988
7.964
8.028
7.992
7.948
8
8.04
8.004
7.932
7.996
8.06
8.052
7.952
7.956
8.036
8.064
8.008
8.024
8.06
8.064
7.984
7.928
7.976
8.028
8
7.924
7.992
8.044
8.004
7.956
7.996
8.052
8.012
7.94
7.96
8.04
8.016
7.988
8
8.04
8.048
7.996
7.984
8.032
8.044
7.98
7.932
8.012
8.06
7.992
7.956
7.96
8.02
7.976
7.968
7.98
8.028
7.988
7.972
8.004
8.044
8.024
7.96
8
8.064
8.076
8.044
8.064
8.1
8.108
8.08
8.088
8.156
8.196
8.12
8.132
8.16
8.188
8.12
8.052
8.12
8.176
8.08
7.884
7.904
8
7.992
7.908
7.884
7.924
7.98
7.884
7.856
7.92
7.932
7.912
7.832
7.88
7.876
7.78
7.708
7.708
7.976
8.572
9.444
10.448
11.192
10.708
9.964
9.548
9.1
8.548
8.152
7.888
7.968
8.016
7.976
7.972
8.016
8.008
7.884
7.84
7.904
7.936
7.868
7.844
7.88
7.92
7.872
7.82
7.864
7.912
7.916
7.856
7.876
7.908
7.892
7.84
7.856
7.924
7.96
7.876
7.872
7.928
7.976
7.928
7.916
7.948
7.984
7.908
7.928
8.02
8.04
8
7.916
7.928
8
7.984
7.932
7.988
8.076
8.052
8.004
8.008
8.096
8.1
8.072
8.06
8.132
8.22
8.164
8.164
8.232
8.284
8.228
8.212
8.28
8.372
8.36
8.312
8.376
8.44
8.436
8.372
8.376
8.44
8.376
8.288
8.268
8.288
8.212
8.116
8.064
8.08
8.076
7.984
7.924
7.936
7.932
7.864
7.808
7.824
7.832
7.792
7.748
7.768
7.828
7.788
7.724
7.76
7.792
7.776
7.732
7.74
7.764
7.8
7.732
7.744
7.788
7.788
7.768
7.756
7.796
7.824
7.796
7.784
7.832
7.828
7.832
7.776
7.836
7.868
7.844
7.812
7.824
7.9
7.888
7.812
7.816
7.856
7.844
7.8
7.804
7.848
7.86
7.808
7.768
7.812
7.868
7.808
7.78
7.824
7.856
7.812
7.776
7.808
7.852
7.82
7.764
7.788
7.816
7.808
7.792
7.788
7.856
7.844
7.772
7.76
7.824
7.86
7.82
7.768
7.84
7.856
7.8
7.784
7.824
7.856
7.808
7.764
7.796
7.868
7.84
7.772
7.832
7.884
7.86
7.78
7.784
7.848
7.888
7.84
7.804
7.828
7.852
7.824
7.816
7.836
7.868
7.824
7.808
7.904
7.94
7.92
7.932
7.944
8.028
8.008
7.964
8.016
8.064
8.072
8.008
8.02
8.048
8.02
8.008
7.996
7.968
7.888
7.812
7.812
7.832
7.86
7.804
7.772
7.808
7.856
7.804
7.748
7.8
7.852
7.832
7.744
7.72
7.728
7.708
7.592
7.88
8.66
9.608
10.612
11.2
10.692
10.076
9.58
8.948
8.496
8.124
7.968
7.944
7.988
8.076
7.976
7.904
7.9
7.94
7.896
7.856
7.88
7.94
7.944
7.868
7.868
7.932
7.916
7.892
7.88
7.936
7.956
7.928
7.88
7.928
7.952
7.916
7.896
7.952
8.004
7.956
7.9
7.928
7.992
7.968
7.932
7.944
8.016
8.004
7.948
7.988
8.06
8.044
7.996
8.016
8.048
8.092
8.064
8.036
8.108
8.148
8.136
8.108
8.144
8.224
8.204
8.18
8.272
8.332
8.308
8.292
8.364
8.428
8.412
8.388
8.42
8.496
8.524
8.48
8.464
8.532
8.552
8.488
8.456
8.464
8.456
8.372
8.276
8.276
8.284
8.168
8.084
8.068
8.088
8.004
7.932
7.94
7.988
7.952
7.912
7.868
7.94
7.932
7.852
7.836
7.88
7.912
7.844
7.832
7.868
7.908
7.848
7.832
7.852
7.928
7.888
7.868
7.9
7.916
7.916
7.828
7.896
7.932
7.936
7.868
7.88
7.936
7.928
7.864
7.868
7.92
7.96
7.92
7.86
7.916
7.912
7.856
7.848
7.896
7.904
7.88
7.808
7.876
7.952
7.864
7.828
7.844
7.916
7.9
7.816
7.832
7.88
7.896
7.844
7.848
7.892
7.88
7.872
7.856
7.924
7.884
7.868
7.852
7.9
7.936
7.9
7.86
7.88
7.956
7.904
7.88
7.892
7.924
7.916
7.868
7.912
7.948
7.924
7.912
7.884
7.94
7.944
7.9
7.896
7.916
7.948
7.904
7.888
7.9
7.944
7.932
7.884
7.924
7.964
7.94
7.852
7.928
7.96
7.952
7.916
7.98
8.048
8.056
8.024
8.044
8.108
8.144
8.12
8.116
8.156
8.16
8.136
8.136
8.16
8.176
8.104
8.084
8.096
8.084
7.976
7.952
7.968
8.004
7.956
7.916
7.892
7.972
7.956
7.908
7.896
7.96
7.956
7.916
7.904
7.892
7.864
7.788
7.688
8.12
8.908
9.84
10.748
11.084
10.492
9.94
9.52
8.988
8.476
8.152
8.04
8.06
8.136
8.128
8.032
8.008
8.036
8.028
7.968
7.94
8.004
7.992
7.968
7.952
7.98
8.004
7.956
7.944
7.992
8.044
7.988
7.944
7.996
8.04
8.016
7.964
7.968
8.052
8.04
8.004
8
8.032
8.064
8.032
8.024
8.056
8.084
8.056
8.044
8.076
8.132
8.092
8.052
8.104
8.156
8.144
8.112
8.156
8.216
8.2
8.184
8.22
8.256
8.268
8.256
8.284
8.376
8.396
8.356
8.388
8.472
8.504
8.476
8.476
8.516
8.6
8.564
8.564
8.584
8.64
8.596
8.528
8.544
8.576
8.516
8.408
8.4
8.428
8.356
8.236
8.212
8.22
8.212
8.128
8.084
8.1
8.124
8.048
8.032
8.048
8.08
8.016
8.016
8.056
8.052
8.024
7.988
8.004
8.068
8.032
7.96
7.98
8.056
8.012
7.988
7.984
8.04
8.036
8.008
7.996
8.064
8.04
8.008
7.976
8.02
8.056
8.008
7.976
8.012
8.052
8.032
7.996
8.008
8.056
8.024
7.984
8.008
8.06
8.028
7.952
7.968
8.04
8.008
7.976
7.968
8.028
8.024
7.98
7.972
8.008
8.04
8.004
7.956
7.996
8.036
8.012
7.956
7.984
8.036
8.008
7.948
7.964
8.028
8.016
7.968
7.964
8.032
8.032
7.98
7.964
8
8.052
7.988
7.988
8.024
8.064
8.008
7.98
7.996
8.076
8.008
7.964
8
8.036
8.028
7.956
7.976
8.02
8.012
7.992
7.988
8.04
8.04
7.988
7.98
8.036
8.036
7.968
7.956
8.024
8.096
8.076
8.04
8.072
8.124
8.144
8.128
8.16
8.232
8.2
8.14
8.188
8.256
8.244
8.164
8.124
8.208
8.188
8.092
7.996
7.972
8
7.98
7.916
7.948
8.004
7.948
7.92
7.944
7.984
7.928
7.9
7.912
7.98
7.912
7.808
7.8
7.796
7.86
8.356
9.144
10.092
10.908
10.528
9.924
9.636
9.276
8.684
8.244
8.08
8.096
8.052
8.048
8.036
8.044
8.004
7.904
7.936
7.968
7.964
7.948
7.96
8.024
7.98
7.928
7.932
7.988
8.004
7.944
7.904
7.972
8.012
7.98
7.932
7.988
8.012
7.992
7.92
7.972
8.02
8.004
7.988
8.012
8.056
8.012
7.968
8.004
8.076
8.052
8.016
8.052
8.104
8.112
8.064
8.052
8.144
8.152
8.12
8.112
8.152
8.228
8.184
8.188
8.228
8.3
8.276
8.236
8.288
8.372
8.396
8.352
8.384
8.456
8.472
8.432
8.464
8.512
8.532
8.512
8.504
8.5
8.528
8.432
8.4
8.404
8.4
8.332
8.244
8.244
8.224
8.14
8.068
8.068
8.108
8.08
8.004
8.004
8.036
8.004
7.944
7.948
8.012
8.016
7.956
7.94
7.984
8.012
7.984
7.94
7.956
8.004
7.98
7.944
7.988
8.028
7.988
7.944
7.988
8.032
7.996
7.944
7.964
8.02
8
7.952
7.948
8.016
7.992
7.96
7.952
7.98
8.016
7.956
7.932
7.98
7.984
7.948
7.92
7.932
8.008
7.948
7.912
7.936
7.996
7.98
7.92
7.912
7.948
7.972
7.908
7.932
7.944
7.932
7.904
7.884
7.96
7.968
7.904
7.896
7.94
7.956
7.944
7.9
7.944
7.972
7.944
7.924
7.952
7.96
7.916
7.9
7.908
7.988
7.964
7.892
7.916
7.956
7.964
7.916
7.904
7.932
7.944
7.888
7.9
7.948
7.96
7.932
7.912
7.928
7.94
7.892
7.864
7.924
8.012
7.984
7.956
7.976
8.064
8.088
8.048
8.072
8.116
8.128
8.108
8.104
8.152
8.172
8.092
8.052
8.12
8.164
8.028
7.904
7.924
7.98
7.92
7.88
7.916
7.956
7.912
7.844
7.892
7.924
7.864
7.844
7.88
7.944
7.896
7.768
7.712
7.708
7.772
8.284
9.096
10.02
10.864
10.7
10.024
9.66
9.36
8.808
8.336
8.052
8.048
8.004
7.996
8.06
8.048
7.996
7.928
7.916
7.964
7.936
7.908
7.888
7.916
7.952
7.924
7.916
7.936
7.98
7.892
7.86
7.928
7.956
7.928
7.9
7.94
7.98
7.948
7.9
7.932
7.976
7.968
7.932
7.932
7.98
7.98
7.948
7.972
8.008
8.064
7.98
7.956
8.044
8.064
7.996
7.968
8.064
8.092
8.084
8.048
8.112
8.144
8.136
8.112
8.152
8.208
8.212
8.184
8.232
8.308
8.34
8.292
8.308
8.376
8.404
8.396
8.376
8.448
8.468
8.444
8.408
8.452
8.492
8.436
8.372
8.336
8.368
8.26
8.192
8.168
8.184
8.128
8.06
8.036
8.036
8.024
7.956
7.952
7.984
7.984
7.936
7.928
7.956
7.984
7.94
7.88
7.92
7.988
7.936
7.884
7.92
7.98
7.952
7.908
7.908
7.964
7.944
7.9
7.924
7.956
7.932
7.904
7.912
7.996
7.968
7.888
7.896
7.928
7.972
7.892
7.884
7.888
7.932
7.912
7.884
7.92
7.956
7.916
7.868
7.884
7.94
7.916
7.892
7.888
7.928
7.932
7.912
7.864
7.908
7.952
7.884
7.848
7.92
7.936
7.916
7.892
7.924
7.972
7.912
7.912
7.924
7.992
7.92
7.86
7.9
7.964
7.972
7.928
7.94
7.972
7.956
7.904
7.908
7.952
7.956
7.908
7.892
7.988
7.964
7.936
7.896
7.924
7.984
7.936
7.912
7.936
7.976
7.956
7.952
7.948
8.036
7.984
7.944
7.924
7.98
7.968
7.908
7.924
7.956
8.024
7.972
7.976
7.984
8.068
8.04
8.032
8.092
8.176
8.14
8.112
8.144
8.196
8.18
8.144
8.144
8.164
8.128
8.104
8.056
8.04
8.008
7.94
7.94
7.972
7.976
7.928
7.896
7.932
7.964
7.9
7.868
7.896
7.972
7.916
7.848
7.82
7.836
7.76
7.716
8.204
9.056
10
10.868
10.836
10.256
9.832
9.42
8.876
8.432
8.14
8.032
8.004
8.084
8.112
8.04
7.988
7.968
7.984
7.952
7.908
7.924
7.992
7.956
7.936
7.952
7.992
7.984
7.908
7.924
7.98
7.988
7.932
7.916
7.968
8.032
7.968
7.932
7.976
8.028
7.972
7.956
7.98
8.02
8
7.952
8.016
8.06
8.012
7.992
8.02
8.096
8.08
8.04
8.056
8.128
8.124
8.076
8.068
8.18
8.212
8.172
8.184
8.24
8.284
8.24
8.232
8.316
8.376
8.38
8.336
8.396
8.492
8.48
8.456
8.484
8.556
8.564
8.532
8.548
8.592
8.584
8.528
8.484
8.504
8.52
8.432
8.344
8.324
8.324
8.236
8.16
8.16
8.184
8.116
8.056
8.084
8.088
8.048
7.976
7.972
8.076
8.04
7.952
7.972
8.048
8.012
7.968
7.992
8.028
8.048
8.004
7.996
8.024
8.08
8
7.976
8.04
8.084
8.048
7.968
8.024
8.1
8.064
8.024
8.032
8.084
8.068
8.04
8.028
8.1
8.092
8.024
8.04
8.068
8.084
8.024
8.004
8.064
8.096
8.044
8.012
8.052
8.1
8.068
7.968
8.028
8.092
8.06
8
8.012
8.068
8.06
7.988
8.028
8.06
8.084
8.004
7.988
8.068
8.06
8.024
7.992
8.044
8.088
8.032
8.016
8.036
8.092
8.06
8.012
8.052
8.072
8.052
8.016
8.036
8.084
8.084
8.012
8.028
8.084
8.076
8.032
8.016
8.084
8.08
8.008
8.016
8.08
8.064
8.028
7.96
8.04
8.072
8.052
7.98
8.032
8.088
8.064
7.988
8
8.064
8.044
8
8.004
8.048
8.052
8.012
8.032
8.132
8.128
8.12
8.104
8.188
8.272
8.228
8.168
8.216
8.28
8.224
8.204
8.236
8.26
8.204
8.14
8.164
8.164
8.072
8.016
8.008
8.1
8.052
7.996
7.984
8.012
8.048
7.98
7.976
7.984
8.032
7.98
7.96
7.972
7.944
7.868
7.772
8.052
8.732
9.564
10.432
11.04
10.58
10.06
9.676
9.2
8.764
8.312
8.148
8.144
8.164
8.212
8.104
8.052
8.072
8.088
8.02
7.964
8.016
8.064
8.02
7.984
8.036
8.076
8.056
8.008
8.036
8.076
8.056
8.02
8.032
8.084
8.088
8.016
8.016
8.084
8.1
8.052
8.004
8.08
8.104
8.072
8.048
8.076
8.132
8.092
8.048
8.1
8.148
8.144
8.076
8.096
8.212
8.208
8.156
8.168
8.244
8.26
8.192
8.212
8.288
8.328
8.32
8.312
8.368
8.404
8.38
8.376
8.444
8.508
8.476
8.46
8.516
8.604
8.576
8.544
8.576
8.656
8.64
8.556
8.548
8.572
8.552
8.464
8.416
8.428
8.4
8.312
8.22
8.256
8.268
8.164
8.08
8.12
8.14
8.108
8.044
8.056
8.116
8.076
8.048
8.032
8.068
8.06
7.992
8.004
8.048
8.064
8.004
7.996
8.036
8.068
8.036
8
8.028
8.08
8.024
8
8.024
8.064
8.02
8
8.036
8.096
8.024
7.972
8.02
8.064
8.044
7.972
8
8.048
8.044
7.968
7.992
8
8.016
7.948
7.948
7.996
8.012
7.988
7.956
7.984
8.048
7.976
7.92
7.948
8.004
7.976
7.952
7.972
8.032
8.016
7.956
7.968
8.02
8.016
7.948
7.96
8.008
8.032
7.96
7.928
8.004
8.016
7.988
7.932
7.968
8.02
7.956
7.928
7.956
8.04
7.996
7.928
7.968
8.024
8.02
7.94
7.956
8.012
8.02
7.972
7.972
8.04
8.032
7.964
7.952
8.008
8.02
7.992
7.976
8.008
8.04
7.992
7.944
7.984
8.044
8.024
7.94
7.988
8.044
8.048
7.964
7.96
8.04
8.052
8.028
8.04
8.104
8.136
8.088
8.084
8.192
8.224
8.204
8.164
8.2
8.228
8.208
8.176
8.164
8.204
8.18
8.116
8.06
8.064
8.036
7.96
7.964
7.996
8.004
7.948
7.92
8
7.996
7.924
7.92
7.976
8
7.96
7.868
7.844
7.844
7.74
8.08
8.832
9.8
10.672
10.912
10.348
9.956
9.62
9.1
8.62
8.32
8.152
8.068
8.104
8.136
8.144
8
7.992
8.004
8.012
7.988
7.956
8
8.064
7.996
7.936
7.968
8.048
8.012
7.948
7.96
8.02
8.024
7.968
7.984
8.016
8.032
7.964
7.996
8.024
8.04
8
7.984
8.052
8.044
8.016
8
8.04
8.088
8.072
8.024
8.048
8.1
8.08
8.032
8.08
8.132
8.136
8.072
8.112
8.172
8.188
8.152
8.148
8.244
8.276
8.244
8.236
8.308
8.34
8.336
8.316
8.368
8.436
8.42
8.388
8.468
8.52
8.496
8.468
8.492
8.564
8.52
8.44
8.44
8.44
8.42
8.328
8.3
8.296
8.28
8.188
8.14
8.156
8.14
8.088
8.036
8.048
8.096
8.016
7.98
8.004
8.068
8.036
7.976
7.984
8.056
8.032
7.976
7.988
8.056
8.036
7.98
7.98
8.032
8.064
8.016
7.992
8.028
8.052
8.004
7.996
8.024
8.056
8.028
7.964
7.996
8.06
8.02
7.976
8.012
8.064
8.048
7.984
7.976
8.044
8.048
7.972
7.972
8.044
8.024
7.984
7.948
7.976
7.992
7.916
7.96
8.02
7.996
7.968
7.944
7.964
8.04
7.992
7.924
7.948
8.028
7.996
7.94
7.976
8.012
8
7.952
7.932
7.98
7.972
7.936
7.924
7.984
8.024
7.96
7.924
7.972
8.028
7.968
7.928
7.968
8.024
7.992
7.92
7.964
8.012
7.996
7.944
7.96
8.02
7.992
7.948
7.956
8.02
8.004
7.968
7.936
7.992
8.028
7.984
7.952
7.976
8.012
7.96
7.96
7.98
8.032
8
7.964
8.02
8.112
8.08
8.028
8.064
8.136
8.176
8.14
8.144
8.224
8.212
8.184
8.168
8.224
8.228
8.152
8.116
8.168
8.18
8.044
7.964
7.992
8.032
8
7.952
7.984
8.02
8
7.964
7.964
8.008
8
7.94
7.96
7.996
7.924
7.848
7.812
7.848
8.3
8.92
9.864
10.848
11.112
10.48
9.96
9.628
9.156
8.596
8.22
8.136
8.196
8.156
8.132
8.092
8.14
8.084
8.008
7.988
8.056
8.048
7.996
7.996
8.036
8.036
8.032
7.972
8.032
8.036
7.992
8.024
8.064
8.096
8.032
7.992
8
8.028
8.056
8.02
8.036
8.108
8.1
8.048
8.024
8.104
8.108
8.04
8.044
8.104
8.128
8.092
8.084
8.128
8.196
8.148
8.112
8.14
8.192
8.188
8.164
8.216
8.26
8.264
8.252
8.272
8.324
8.344
8.312
8.336
8.432
8.452
8.4
8.428
8.528
8.548
8.548
8.532
8.576
8.652
8.58
8.556
8.584
8.604
8.544
8.432
8.46
8.484
8.404
8.308
8.268
8.308
8.268
8.152
8.12
8.168
8.14
8.08
8.036
8.06
8.072
8.056
7.996
8.024
8.088
8.016
7.98
8.02
8.08
8.04
8.008
8.012
8.072
8.048
8
8.024
8.068
8.06
8.016
8.016
8.068
8.068
8.008
7.984
8.048
8.06
8.008
7.98
8.016
8.04
8.04
8.004
8.032
8.06
8.004
7.996
7.988
8.048
8.008
7.96
8
8.06
8.052
7.948
7.972
8.028
8.04
7.98
7.952
8.04
8.04
7.992
7.964
7.984
8.028
8.028
7.988
8
8.048
8.032
7.992
8.008
8.076
8.032
7.952
7.94
8.04
8.048
7.976
7.968
8.028
8.028
7.948
7.96
8.012
8.02
7.992
7.968
8.016
8.056
8.016
7.964
7.988
8.048
8.004
7.936
7.968
8.004
7.984
7.96
7.948
8.004
7.988
7.928
7.94
8.008
8.016
7.944
7.924
7.996
8.004
7.944
7.944
7.984
8.004
7.956
7.964
8.008
8.052
8.048
8.028
8.076
8.164
8.152
8.1
8.16
8.236
8.232
8.148
8.172
8.204
8.188
8.12
8.088
8.116
8.076
7.956
7.94
7.996
7.968
7.924
7.9
7.944
7.972
7.936
7.86
7.9
7.968
7.94
7.884
7.916
7.936
7.856
7.776
7.716
8.148
8.848
9.664
10.588
10.948
10.376
9.868
9.512
9.104
8.672
8.244
8.056
8.092
8.112
8.092
8.004
7.996
8.02
7.98
7.896
7.92
7.94
7.956
7.892
7.884
7.952
7.944
7.892
7.888
7.932
7.96
7.916
7.876
7.924
7.972
7.94
7.904
7.952
7.992
7.928
7.868
7.888
7.98
7.936
7.88
7.916
7.98
7.996
7.912
7.948
8
8.016
7.976
7.968
8.052
8.08
7.972
7.972
8.036
8.08
8.052
8.036
8.112
8.168
8.16
8.104
8.156
8.236
8.248
8.208
8.236
8.308
8.32
8.28
8.32
8.396
8.388
8.356
8.404
8.456
8.484
8.448
8.412
8.404
8.452
8.36
8.28
8.292
8.276
8.196
8.132
8.12
8.112
8.072
7.98
7.948
8.012
7.976
7.896
7.884
7.936
7.94
7.86
7.852
7.9
7.92
7.88
7.848
7.904
7.92
7.864
7.828
7.884
7.94
7.9
7.856
7.892
7.948
7.92
7.84
7.868
7.952
7.928
7.872
7.888
7.928
7.928
7.892
7.856
7.94
7.912
7.872
7.84
7.92
7.956
7.884
7.868
7.892
7.944
7.912
7.868
7.9
7.948
7.92
7.848
7.9
7.924
7.904
7.856
7.864
7.928
7.92
7.852
7.872
7.924
7.94
7.88
7.86
7.908
7.916
7.884
7.856
7.88
7.924
7.872
7.844
7.92
7.952
7.912
7.828
7.872
7.928
7.936
7.856
7.856
7.92
7.932
7.868
7.828
7.9
7.924
7.856
7.84
7.928
7.932
7.872
7.84
7.88
7.92
7.864
7.824
7.856
7.92
7.876
7.828
7.868
7.908
7.9
7.856
7.868
7.908
7.896
7.876
7.912
7.996
8.008
7.996
7.956
8.052
8.128
8.088
8.06
8.088
8.156
8.116
8.08
8.1
8.132
8.072
8.052
8.004
7.992
7.932
7.884
7.88
7.932
7.932
7.84
7.864
7.9
7.904
7.864
7.856
7.912
7.944
7.896
7.828
7.804
7.804
7.688
7.756
8.384
9.276
10.24
11.048
10.804
10.244
9.824
9.34
8.796
8.38
8.172
8.068
8.052
8.084
8.084
7.968
7.912
7.964
7.98
7.92
7.88
7.92
7.964
7.944
7.868
7.908
7.984
7.948
7.928
7.928
7.976
7.956
7.904
7.932
8.012
7.992
7.94
7.936
8.012
8.012
7.976
7.944
8.004
8.048
8.004
7.956
7.996
8.06
8.02
7.988
8.012
8.08
8.044
8.008
8.056
8.128
8.128
8.06
8.092
8.156
8.18
8.136
8.128
8.232
8.264
8.24
8.224
8.292
8.344
8.328
8.324
8.396
8.444
8.424
8.404
8.484
8.556
8.528
8.508
8.556
8.612
8.576
8.536
8.492
8.532
8.472
8.372
8.324
8.344
8.312
8.18
8.14
8.16
8.184
8.1
8.04
8.032
8.084
8.032
7.984
8
8.072
8.016
7.972
7.972
8.048
8.032
7.976
7.988
8.04
8.048
7.98
7.96
8.044
8.064
8.012
7.972
8.028
8.076
8.028
7.996
8.048
8.076
8.024
7.976
8.02
8.064
8.052
7.984
8.012
8.056
8.064
7.992
8
8.056
8.044
8.008
8.004
8.024
8.052
7.992
7.98
8.032
8.024
8.004
7.964
8.036
8.084
8.024
7.972
8.02
8.076
8.052
7.984
8.024
8.084
8.06
8.02
8.02
8.084
8.068
7.996
8
8.068
8.096
8.032
8.02
8.08
8.092
8.044
8.016
8.056
8.08
8.08
8.008
8.048
8.092
8.064
8.012
8.052
8.116
8.088
8.024
8.032
8.084
8.116
8.032
8.04
8.096
8.124
8.064
8.064
8.076
8.12
8.064
8.024
8.088
8.128
8.084
8.028
8.108
8.16
8.116
8.028
8.068
8.12
8.14
8.096
8.12
8.208
8.224
8.192
8.216
8.292
8.324
8.276
8.28
8.328
8.364
8.296
8.28
8.308
8.336
8.28
8.212
8.184
8.196
8.14
8.112
8.088
8.136
8.12
8.068
8.076
8.124
8.116
8.056
8.06
8.096
8.148
8.068
8
7.98
7.988
7.904
8.176
8.912
9.872
10.804
11.196
10.664
10.204
9.816
9.26
8.804
8.484
8.352
8.256
8.272
8.328
8.268
8.172
8.14
8.188
8.188
8.132
8.104
8.152
8.18
8.108
8.06
8.14
8.18
8.132
8.088
8.116
8.196
8.188
8.104
8.116
8.188
8.176
8.128
8.148
8.216
8.208
8.164
8.18
8.192
8.224
8.172
8.168
8.232
8.248
8.2
8.18
8.228
8.284
8.248
8.224
8.24
8.328
8.308
8.256
8.308
8.364
8.312
8.284
8.344
8.424
8.44
8.384
8.396
8.504
8.532
8.508
8.52
8.612
8.636
8.624
8.62
8.684
8.744
8.712
8.68
8.724
8.8
8.724
8.652
8.664
8.704
8.624
8.512
8.488
8.524
8.472
8.392
8.344
8.348
8.324
8.236
8.204
8.228
8.228
8.204
8.132
8.188
8.232
8.156
8.108
8.144
8.212
8.168
8.124
8.116
8.2
8.176
8.144
8.148
8.212
8.188
8.136
8.148
8.192
8.212
8.136
8.132
8.16
8.2
8.156
8.112
8.164
8.2
8.16
8.124
8.144
8.188
8.148
8.12
8.16
8.2
8.184
8.116
8.12
8.196
8.204
8.148
8.124
8.192
8.192
8.16
8.128
8.168
8.196
8.136
8.128
8.132
8.196
8.132
8.088
8.136
8.208
8.148
8.092
8.112
8.152
8.16
8.112
8.104
8.172
8.144
8.12
8.104
8.16
8.176
8.1
8.08
8.164
8.172
8.112
8.056
8.112
8.172
8.128
8.068
8.108
8.172
8.136
8.092
8.124
8.172
8.116
8.068
8.112
8.136
8.168
8.076
8.084
8.148
8.16
8.1
8.076
8.128
8.16
8.116
8.1
8.128
8.156
8.1
8.076
8.12
8.156
8.116
8.072
8.132
8.228
8.2
8.176
8.184
8.276
8.284
8.256
8.292
8.328
8.348
8.28
8.308
8.34
8.376
8.28
8.24
8.304
8.304
8.176
8.076
8.104
8.184
8.108
8.072
8.092
8.16
8.104
8.056
8.072
8.116
8.104
8.06
8.072
8.112
8.076
7.956
7.924
7.916
8.372
8.996
9.868
10.84
11.02
10.388
9.952
9.668
9.212
8.668
8.304
8.248
8.276
8.22
8.2
8.168
8.168
8.16
8.088
8.064
8.124
8.136
8.084
8.068
8.1
8.132
8.084
8.072
8.116
8.136
8.06
8.052
8.092
8.136
8.092
8.044
8.096
8.144
8.148
8.088
8.076
8.136
8.144
8.06
8.072
8.14
8.16
8.116
8.128
8.168
8.188
8.14
8.104
8.168
8.24
8.196
8.148
8.18
8.252
8.228
8.2
8.24
8.308
8.296
8.264
8.296
8.384
8.388
8.364
8.396
8.464
8.488
8.468
8.46
8.516
8.62
8.58
8.548
8.608
8.664
8.616
8.62
8.616
8.64
8.564
8.504
8.488
8.492
8.432
8.34
8.288
8.34
8.28
8.184
8.152
8.204
8.2
8.14
8.088
8.1
8.096
8.056
8.024
8.088
8.128
8.044
8
8.048
8.112
8.048
7.984
8.04
8.088
8.084
8.024
8.016
8.052
8.052
8.016
8.036
8.076
8.092
8.028
7.992
8.064
8.092
8.032
7.992
8.032
8.092
8.056
8.008
8.004
8.068
8.024
8
8.032
8.052
8.036
7.992
8.008
8.06
8.024
7.996
7.968
8.044
8.048
7.976
7.976
8.016
8.072
8.016
7.988
8.036
8.068
7.996
7.972
8.024
8.092
8.04
7.996
8.028
8.084
8.008
7.956
7.984
8.04
8.056
7.992
7.992
8.04
8.024
7.984
7.98
8.016
8.04
8.012
7.98
8.012
8.044
8.008
7.936
7.964
8.052
8.012
7.964
7.984
8.028
8.02
7.96
7.964
8.032
7.992
7.94
7.964
7.988
7.996
7.948
7.96
7.988
8.032
7.996
7.928
7.992
8.012
7.964
7.956
8.04
8.096
8.052
8.032
8.096
8.164
8.172
8.12
8.156
8.216
8.236
8.176
8.164
8.24
8.196
8.144
8.112
8.144
8.072
7.98
7.928
7.996
8.012
7.968
7.92
7.928
7.96
7.924
7.86
7.88
7.976
7.96
7.904
7.908
7.9
7.852
7.74
7.712
8.228
9.004
9.804
10.664
10.76
10.184
9.78
9.484
9.032
8.636
8.232
8.064
8.108
8.156
8.108
8.028
7.968
8.016
7.972
7.952
7.96
7.988
7.972
7.912
7.924
7.96
7.96
7.916
7.9
7.944
7.996
7.948
7.908
7.96
7.992
7.944
7.872
7.952
7.984
7.956
7.928
7.956
8.028
7.964
7.92
7.928
8.008
7.992
7.936
7.964
8.036
8.02
8.004
7.98
8.032
8.052
8.032
8.024
8.092
8.124
8.084
8.072
8.112
8.184
8.168
8.128
8.192
8.272
8.28
8.26
8.288
8.364
8.36
8.34
8.36
8.444
8.48
8.44
8.468
8.504
8.524
8.452
8.404
8.456
8.48
8.396
8.328
8.292
8.288
8.216
8.12
8.152
8.132
8.1
7.98
7.972
8.048
7.996
7.92
7.908
7.972
7.944
7.916
7.876
7.944
7.952
7.9
7.868
7.936
7.956
7.9
7.9
7.932
7.944
7.908
7.876
7.916
7.948
7.924
7.872
7.896
7.952
7.928
7.872
7.852
7.904
7.928
7.876
7.872
7.932
7.952
7.884
7.856
7.9
7.928
7.888
7.82
7.868
7.912
7.892
7.82
7.84
7.884
7.888
7.848
7.852
7.86
7.908
7.856
7.852
7.908
7.924
7.852
7.86
7.908
7.94
7.884
7.852
7.908
7.932
7.912
7.86
7.9
7.908
7.892
7.856
7.904
7.972
7.908
7.844
7.876
7.964
7.892
7.852
7.86
7.92
7.912
7.86
7.836
7.88
7.936
7.852
7.844
7.896
7.916
7.848
7.84
7.864
7.936
7.868
7.82
7.852
7.94
7.876
7.828
7.852
7.92
7.912
7.88
7.892
7.944
7.932
7.844
7.836
7.892
7.932
7.884
7.888
7.964
8.036
7.996
7.96
8.076
8.14
8.072
8.036
8.08
8.16
8.116
8.068
8.068
8.104
8.088
8.008
7.948
7.992
7.956
7.88
7.848
7.888
7.916
7.872
7.804
7.856
7.892
7.828
7.796
7.856
7.892
7.856
7.772
7.724
7.8
7.676
8
8.712
9.72
10.68
10.92
10.348
9.948
9.604
9.056
8.556
8.26
8.136
8.056
8
8.076
8.032
7.928
7.836
7.864
7.94
7.884
7.82
7.844
7.956
7.908
7.856
7.864
7.948
7.912
7.856
7.844
7.904
7.916
7.848
7.868
7.944
7.936
7.9
7.872
7.904
7.968
7.888
7.884
7.92
7.968
7.904
7.916
7.904
8.012
7.94
7.88
7.912
8.012
7.964
7.944
7.984
8.036
8.036
7.984
7.988
8.04
8.084
8.056
8.048
8.12
8.188
8.152
8.14
8.212
8.296
8.268
8.252
8.308
8.4
8.364
8.34
8.388
8.46
8.468
8.424
8.424
8.48
8.48
8.4
8.384
8.396
8.388
8.272
8.232
8.216
8.228
8.1
8.032
8.064
8.076
8.004
7.896
7.94
8
7.928
7.888
7.9
7.94
7.904
7.86
7.888
7.972
7.932
7.852
7.868
7.932
7.96
7.884
7.864
7.916
7.952
7.916
7.872
7.904
7.944
7.936
7.848
7.932
7.988
7.936
7.872
7.908
7.988
7.948
7.932
7.912
7.996
7.984
7.912
7.892
7.948
7.98
7.932
7.892
7.972
8.004
7.94
7.884
7.948
8.008
7.944
7.868
7.936
8.02
7.964
7.9
7.896
7.968
7.944
7.912
7.912
7.976
7.952
7.88
7.908
7.944
7.96
7.912
7.856
7.928
7.988
7.916
7.864
7.904
7.988
7.908
7.868
7.92
8.004
7.936
7.872
7.916
7.972
7.952
7.884
7.896
7.956
7.992
7.908
7.884
7.964
8.012
7.928
7.932
7.988
8.032
7.988
7.956
7.984
8.016
7.968
7.944
7.984
8.024
7.972
7.936
7.92
8.036
8.004
7.94
7.936
8.008
8.02
7.956
7.968
8.012
8.032
7.944
7.952
8.024
8.076
8.008
7.98
8.08
8.148
8.088
8.076
8.112
8.236
8.208
8.168
8.18
8.272
8.252
8.184
8.188
8.256
8.232
8.164
8.16
8.176
8.144
8.048
8.008
8.068
8.108
8.024
7.988
8.012
8.072
8.024
7.984
8
8.104
8.056
7.956
7.952
7.96
7.944
7.812
8.104
8.832
9.756
10.644
11.068
10.568
10.108
9.72
9.2
8.792
8.44
8.232
8.184
8.22
8.264
8.14
8.068
8.056
8.136
8.072
8.012
8.008
8.096
8.072
7.992
8.004
8.064
8.06
8.016
8.02
8.048
8.076
8.02
8
8.028
8.108
8.028
7.992
8.04
8.088
8.044
7.992
8.028
8.104
8.08
8.012
8.048
8.116
8.104
8.024
8.06
8.124
8.116
8.072
8.1
8.16
8.196
8.124
8.12
8.172
8.232
8.192
8.188
8.252
8.316
8.268
8.252
8.312
8.424
8.384
8.332
8.4
8.476
8.508
8.444
8.444
8.56
8.584
8.52
8.56
8.604
8.624
8.544
8.516
8.544
8.548
8.448
8.376
8.392
8.42
8.296
8.196
8.192
8.228
8.168
8.072
8.036
8.124
8.084
8.004
7.984
8.068
8.048
7.98
7.984
8.016
8.048
7.96
7.956
7.964
8.072
7.98
7.964
7.992
8.056
8
7.98
7.992
8.06
8
7.984
8.004
8.084
8.032
7.968
7.988
8.076
8.08
8.012
8.008
8.088
8.076
8.032
8.02
8.052
8.108
8.024
8.02
8.04
8.084
8.04
7.976
8.032
8.104
8.036
7.968
8.008
8.088
8.052
7.976
7.996
8.064
8.052
8.024
8
8.04
8.072
8
7.964
8.044
8.08
7.968
7.984
8.024
8.076
8.028
7.976
8.016
8.06
8.044
7.976
7.996
8.048
8.016
7.984
7.988
8.048
8.048
7.984
7.972
8.052
8.06
7.992
7.96
8.004
8.028
7.992
7.984
7.996
8.064
8.024
7.972
8.016
8.044
8.036
7.976
8.008
8.084
8.056
7.992
7.976
8.064
8.068
8.008
7.992
8.052
8.064
8.016
7.984
8.052
8.064
8.024
8.008
8.044
8.096
8.024
7.976
8
8.092
8.096
8.048
8.088
8.156
8.16
8.144
8.156
8.252
8.264
8.184
8.216
8.268
8.3
8.232
8.196
8.22
8.248
8.184
8.076
8.068
8.1
8.04
7.98
8.008
8.064
7.992
7.964
7.972
8.048
8.004
7.936
7.94
8.016
8.036
7.92
7.856
7.904
7.892
7.888
8.392
9.224
10.188
10.948
10.604
10.112
9.808
9.352
8.812
8.4
8.22
8.144
8.096
8.128
8.168
8.068
8
7.98
8.02
8.064
7.96
7.98
8.012
8.052
7.976
7.976
8.004
8.056
7.98
7.944
8.012
8.068
8
7.956
8.012
8.088
8.04
7.988
8.016
8.096
8.06
8.004
8.02
8.108
8.088
8.02
8.044
8.128
8.112
8.076
8.068
8.12
8.168
8.116
8.084
8.144
8.18
8.192
8.156
8.188
8.268
8.248
8.208
8.272
8.324
8.328
8.284
8.316
8.444
8.46
8.392
8.432
8.484
8.568
8.524
8.52
8.588
8.628
8.6
8.592
8.64
8.672
8.596
8.54
8.556
8.576
8.504
8.4
8.38
8.404
8.36
8.252
8.224
8.268
8.224
8.132
8.12
8.136
8.164
8.092
8.06
8.104
8.144
8.068
8.016
8.084
8.148
8.072
8.008
8.056
8.144
8.112
8.044
8.06
8.12
8.124
8.044
8.056
8.132
8.14
8.068
8.072
8.116
8.156
8.064
8.084
8.104
8.172
8.116
8.06
8.092
8.14
8.116
8.084
8.108
8.16
8.136
8.06
8.084
8.16
8.108
8.056
8.068
8.132
8.128
8.044
8.032
8.104
8.108
8.036
8.056
8.068
8.14
8.06
8.04
8.08
8.112
8.076
8.024
8.064
8.104
8.12
8.02
8.06
8.116
8.104
8.044
8.052
8.096
8.104
8.032
8.024
8.1
8.12
8.06
8.016
8.064
8.104
8.044
8.008
8.048
8.104
8.06
8.016
8.032
8.08
8.072
8.008
8.052
8.06
8.064
7.992
8.008
8.092
8.048
7.996
8.012
8.076
8.072
8.028
8.02
8.04
8.096
8.048
8
8.032
8.076
8.02
7.972
8.012
8.048
8.02
7.972
8.024
8.128
8.108
8.036
8.068
8.152
8.192
8.14
8.144
8.22
8.248
8.216
8.192
8.232
8.248
8.156
8.132
8.188
8.176
8.072
7.984
8.028
8.068
8.064
7.956
7.976
8.032
8.024
7.952
7.968
8.024
8.016
7.944
7.964
8.016
7.944
7.844
7.788
7.828
8.308
8.972
9.808
10.772
10.9
10.268
9.836
9.584
9.112
8.616
8.252
8.16
8.216
8.16
8.096
8.068
8.088
8.084
7.984
7.952
8.036
8.052
7.98
7.908
7.996
8.036
7.992
7.984
7.992
8.064
7.988
7.956
8.02
8.076
8.052
7.956
8
8.076
8.052
7.996
7.98
8.04
8.064
8
7.996
8.072
8.072
8.028
8.032
8.068
8.116
8.048
8.024
8.1
8.164
8.14
8.068
8.144
8.172
8.192
8.128
8.148
8.26
8.24
8.192
8.228
8.308
8.34
8.268
8.312
8.404
8.416
8.36
8.38
8.464
8.536
8.488
8.448
8.48
8.568
8.56
8.484
8.508
8.536
8.468
8.372
8.376
8.424
8.344
8.248
8.212
8.268
8.224
8.116
8.06
8.128
8.124
8.068
8.036
8.048
8.096
8.028
7.968
8.008
8.032
8.032
7.956
8.024
8.072
8.064
8.004
8.02
8.056
8.052
8.004
8.004
8.052
8.056
7.996
8
8.044
8.1
8.004
8.004
8.032
8.068
8.008
7.984
8
8.064
8.012
7.976
8.008
8.036
8.036
7.96
7.96
8.048
8.016
7.928
7.964
8.02
8.04
7.976
7.952
8.032
8.032
7.968
7.936
7.972
8.012
7.968
7.92
7.956
7.992
7.964
7.904
7.968
8.004
7.956
7.9
7.916
7.992
8.004
7.904
7.948
8.02
8.008
7.948
7.944
7.996
7.988
7.92
7.928
7.968
8
7.952
7.928
7.964
7.988
7.992
7.944
7.98
8.016
7.984
7.912
7.948
8.012
8.004
7.92
7.952
7.996
7.976
7.92
7.928
8
8
7.928
7.896
7.98
8.004
7.948
7.892
7.944
7.996
7.952
7.896
7.952
8.04
8.032
8.004
8.06
8.124
8.104
8.04
8.12
8.192
8.164
8.116
8.112
8.18
8.184
8.104
8.084
8.136
8.076
7.952
7.916
7.96
7.968
7.876
7.84
7.88
7.952
7.916
7.832
7.88
7.952
7.944
7.86
7.848
7.84
7.796
7.708
7.62
7.948
8.64
9.468
10.428
11.036
10.568
9.968
9.584
9.184
8.712
8.252
8.004
8.04
8.104
8.092
7.984
7.908
7.944
7.924
7.88
7.904
7.932
7.924
7.86
7.856
7.936
7.94
7.896
7.892
7.92
7.924
7.9
7.884
7.912
7.952
7.928
7.856
7.912
7.96
7.948
7.896
7.92
7.98
7.984
7.908
7.928
7.996
8.004
7.944
7.936
7.996
8.024
7.984
7.956
8.016
8.048
8.036
8.008
8.096
8.12
8.076
8.068
8.096
8.184
8.18
8.108
8.164
8.264
8.268
8.228
8.26
8.336
8.344
8.332
8.34
8.4
8.44
8.388
8.412
8.492
8.524
8.46
8.408
8.416
8.472
8.384
8.32
8.296
8.344
8.288
8.192
8.14
8.156
8.108
8.012
7.972
8.076
8.024
7.94
7.92
7.988
7.98
7.932
7.892
7.916
7.968
7.92
7.916
7.952
7.988
7.98
7.908
7.952
7.992
7.944
7.896
7.928
7.988
7.98
7.932
7.948
7.988
8.008
7.916
7.936
7.992
7.996
7.956
7.928
7.976
7.996
7.96
7.916
7.968
7.972
7.968
7.888
7.928
7.976
7.972
7.892
7.932
7.972
7.94
7.896
7.908
7.952
7.948
7.9
7.928
7.992
8.004
7.94
7.904
7.972
7.996
7.92
7.884
7.964
7.988
7.972
7.88
7.924
7.976
7.936
7.9
7.928
7.976
7.956
7.904
7.924
7.972
7.956
7.904
7.868
7.928
7.956
7.944
7.912
7.94
7.972
7.936
7.896
7.952
7.968
7.952
7.908
7.928
7.992
7.992
7.924
7.944
7.988
8
7.932
7.908
7.984
7.94
7.936
7.92
7.944
7.96
7.924
7.888
7.968
7.98
7.912
7.896
7.936
7.976
7.936
7.904
7.972
8.044
8.048
8.004
8.04
8.108
8.112
8.104
8.12
8.188
8.14
8.124
8.116
8.192
8.164
8.108
8.076
8.14
8.108
7.976
7.908
7.936
8
7.936
7.896
7.916
7.932
7.916
7.856
7.904
7.952
7.928
7.872
7.86
7.912
7.852
7.744
7.708
8.028
8.68
9.532
10.5
11.128
10.6
10.016
9.636
9.192
8.728
8.276
8.064
8.096
8.128
8.1
7.992
8.004
8.032
8.012
7.916
7.924
7.972
7.952
7.912
7.908
7.968
7.972
7.908
7.884
7.96
8.004
7.956
7.9
7.948
8.012
7.98
7.924
7.952
8.012
7.992
7.916
7.944
8.004
8.012
7.932
7.972
8.036
8.02
7.98
8.012
8.056
8.068
8.016
8.028
8.056
8.092
8.092
8.06
8.12
8.164
8.164
8.116
8.184
8.228
8.2
8.136
8.24
8.324
8.32
8.292
8.324
8.38
8.436
8.4
8.384
8.468
8.48
8.452
8.452
8.544
8.544
8.52
8.46
8.516
8.52
8.444
8.352
8.336
8.356
8.284
8.168
8.168
8.192
8.14
8.04
8.052
8.1
8.044
7.988
7.96
8.016
8.004
7.956
7.924
8.012
8.04
7.988
7.932
7.98
8.016
7.988
7.936
7.952
8.024
7.984
7.956
7.972
8.032
8.016
7.948
7.972
8.048
8.016
7.952
7.96
8.044
8.04
7.996
7.968
8.016
8.036
8
7.956
7.992
8.036
7.988
7.964
8.004
8.048
8.02
7.944
7.948
8.02
8.012
7.936
7.928
7.992
8.02
7.948
7.936
8.024
7.988
7.96
7.932
7.984
7.992
7.936
7.92
7.988
8.024
7.96
7.932
7.96
7.988
7.964
7.924
7.96
8.016
7.976
7.952
7.98
8.028
8
7.964
7.948
8.008
8.02
7.968
7.936
7.996
8.036
7.988
7.952
7.98
8.036
7.992
7.956
7.972
8.032
7.98
7.94
7.988
8.02
8.012
7.944
7.968
8.02
8.024
7.96
7.932
8.008
8.024
7.992
7.956
7.992
8.016
7.976
7.936
7.968
8.012
7.988
7.936
7.968
8.036
8.048
8.016
8.056
8.124
8.112
8.08
8.084
8.192
8.192
8.18
8.152
8.212
8.212
8.176
8.18
8.196
8.192
8.152
8.096
8.064
8.06
8.016
7.984
7.988
8.032
8
7.948
7.956
8.02
7.98
7.924
7.964
8.02
8.004
7.928
7.852
7.88
7.852
7.844
8.304
9.116
10.096
10.94
10.772
10.212
9.828
9.42
8.864
8.448
8.232
8.168
8.076
8.112
8.188
8.096
8.016
8
8.072
8.032
8.016
8
8.048
8.044
8.028
8.008
8.048
8.06
8.044
8
8.068
8.084
8.044
7.996
8.032
8.084
8.072
8.016
8.048
8.104
8.068
8.048
8.072
8.136
8.112
8.064
8.08
8.116
8.152
8.104
8.1
8.144
8.192
8.144
8.132
8.184
8.24
8.212
8.176
8.216
8.272
8.268
8.236
8.284
8.36
8.348
8.332
8.328
8.436
8.432
8.384
8.416
8.48
8.552
8.52
8.504
8.56
8.596
8.576
8.56
8.628
8.632
8.576
8.516
8.536
8.536
8.44
8.356
8.352
8.384
8.312
8.228
8.196
8.248
8.172
8.12
8.088
8.144
8.116
8.04
8.04
8.08
8.076
8.036
8.02
8.068
8.088
8.044
8.008
8.056
8.108
8.076
8.032
8.052
8.108
8.056
8.028
8.064
8.112
8.08
8.036
8.044
8.112
8.116
8.052
8.036
8.096
8.116
8.076
8.016
8.084
8.092
8.092
8.016
8.076
8.104
8.052
8
8.056
8.116
8.076
8.016
8.02
8.068
8.064
8.02
8
8.068
8.04
8.004
7.988
8.06
8.052
8
7.996
8.02
8.076
8.02
7.992
8.02
8.052
8.012
7.98
8
8.064
8.036
8
8.012
8.072
8.032
8.012
8.004
8.052
8.04
8.036
8
8.048
8.056
8.02
7.976
8.052
8.068
8.004
7.968
8.024
8.072
8.064
8
8.032
8.064
8.008
7.976
8.004
8.072
8.012
7.988
7.968
8.048
8.052
8
7.98
8.044
8.048
7.988
7.98
8.028
8.036
8.032
8.008
8.028
8.048
8.028
7.984
8.012
8.096
8.036
8.004
8.02
8.128
8.112
8.088
8.096
8.172
8.18
8.212
8.2
8.248
8.252
8.2
8.192
8.252
8.26
8.2
8.14
8.164
8.196
8.096
8.024
8.036
8.056
8.036
7.96
7.968
8.008
8
7.964
7.952
8.016
8.008
7.976
7.952
7.96
7.936
7.852
7.776
7.884
8.484
9.228
10.116
10.964
10.7
10.08
9.712
9.368
8.916
8.428
8.128
8.144
8.18
8.18
8.084
8.044
8.06
8.072
8.008
7.956
8.032
8.024
8
7.952
8.012
8.064
8.008
7.94
7.976
8.056
8.004
7.956
7.984
8.028
8.012
7.948
7.964
8.012
8.004
7.984
7.976
8.032
8.032
8.016
7.996
8.036
8.056
8.024
8.02
8.08
8.096
8.068
8.048
8.092
8.136
8.112
8.092
8.116
8.18
8.14
8.128
8.148
8.216
8.196
8.204
8.192
8.264
8.276
8.284
8.292
8.396
8.416
8.38
8.368
8.428
8.476
8.468
8.444
8.488
8.544
8.512
8.488
8.496
8.516
8.444
8.372
8.336
8.4
8.308
8.236
8.16
8.192
8.14
8.1
8.052
8.072
8.06
8.032
7.968
8.004
8.012
7.988
7.956
8
8.032
7.976
7.924
7.948
8.004
7.996
7.948
7.956
8.036
8.024
7.98
7.976
8.016
8.008
7.948
7.964
8
8.04
7.992
7.952
8
8.016
7.988
7.944
8
8.024
7.984
7.964
7.964
8
7.964
7.904
7.94
8.012
7.992
7.952
7.932
8.012
7.988
7.932
7.912
7.948
7.988
7.952
7.928
7.964
7.996
7.944
7.928
7.94
8.012
7.948
7.908
7.944
7.952
7.948
7.936
7.916
8.008
7.984
7.94
7.912
7.956
7.956
7.928
7.94
7.992
8.02
7.928
7.924
7.956
7.976
7.932
7.916
7.944
8.004
7.96
7.912
7.948
8.004
7.992
7.932
7.912
8.004
7.996
7.928
7.932
7.992
7.96
7.88
7.9
7.972
7.956
7.92
7.912
7.952
8.004
7.948
7.892
7.944
7.984
7.948
7.924
7.96
8
7.984
7.968
8.008
8.1
8.108
8.076
8.084
8.156
8.164
8.104
8.08
8.148
8.168
8.124
8.104
8.128
8.136
8.064
7.956
7.912
7.964
7.88
7.912
7.868
7.944
7.9
7.924
7.868
7.932
7.896
7.92
7.868
7.924
7.92
7.86
7.76
7.768
7.708
7.972
8.64
9.6
10.596
11.012
10.476
9.936
9.712
9.22
8.752
8.3
8.148
8.088
8.104
8.088
8.08
8.028
7.996
7.948
8.028
7.988
7.94
7.928
7.988
8
7.924
7.928
7.972
7.968
7.924
7.956
7.956
8
7.908
7.956
7.968
8.004
7.972
7.964
7.928
8.02
7.972
8
7.952
8.036
8.008
8
7.972
8.056
8.072
8.012
8.016
8.044
8.068
8.024
8.052
8.088
8.144
8.08
8.136
8.092
8.2
8.116
8.184
8.156
8.24
8.216
8.276
8.264
8.296
8.32
8.316
8.32
8.4
8.448
8.396
8.424
8.472
8.52
8.48
8.5
8.492
8.54
8.476
8.464
8.44
8.44
8.328
8.344
8.26
8.292
8.2
8.176
8.108
8.164
8.112
8.052
8.004
8.028
8.056
7.992
7.984
8.008
8.036
7.956
7.964
7.964
8.032
7.94
7.98
7.964
8.044
7.992
8.004
7.964
8.048
8.02
8.024
7.98
8.044
8.024
7.996
7.968
8.04
8.032
7.964
8
8.056
8.064
7.968
8.008
8.012
8.04
7.984
7.992
7.936
8.004
7.964
7.992
7.976
8.02
7.984
7.976
7.972
8.024
8.008
7.96
7.948
7.996
8.024
7.952
7.964
8.004
8.004
7.936
7.984
7.964
8.016
7.968
8.008
7.984
8.02
7.976
7.98
7.976
8.04
8.012
8
7.964
8.032
8.028
7.996
7.964
8.004
8.028
7.956
7.984
8
8.016
7.948
7.98
7.96
8.032
7.964
7.98
7.96
8.004
7.976
7.988
7.948
8.008
7.972
7.968
7.956
8
8
7.976
7.976
8.028
8
7.94
7.988
8.016
8.024
7.924
7.976
7.98
8.016
7.976
7.996
7.948
8.036
8.004
8.076
8.048
8.12
8.124
8.112
8.124
8.244
8.244
8.184
8.16
8.232
8.276
8.204
8.2
8.188
8.224
8.148
8.172
8.068
8.1
8.012
8.056
8.008
8.048
8.004
8.008
7.984
8.032
8.012
7.972
7.964
7.992
8.012
7.908
7.896
7.888
7.852
7.948
8.58
9.468
10.488
11.092
10.724
10.164
9.84
9.296
8.848
8.364
8.244
8.188
8.168
8.164
8.192
8.116
8.056
8.04
8.072
8.084
7.988
8.024
8.048
8.048
7.968
8.024
8.032
8.064
7.996
8.032
8.016
8.044
8.016
8.032
8.024
8.076
8.048
8.032
8.044
8.112
8.068
8.036
8.048
8.096
8.092
8.036
8.088
8.116
8.144
8.06
8.128
8.104
8.16
8.112
8.164
8.16
8.192
8.144
8.176
8.2
8.272
8.236
8.248
8.276
8.332
8.328
8.308
8.324
8.416
8.428
8.388
8.456
8.492
8.504
8.464
8.532
8.576
8.588
8.544
8.6
8.592
8.644
8.576
8.564
8.5
8.52
8.472
8.4
8.336
8.36
8.288
8.236
8.2
8.22
8.156
8.092
8.096
8.136
8.116
8.048
8.072
8.052
8.108
8.04
8.072
8.052
8.116
8.044
8.064
8.076
8.112
8.076
8.072
8.068
8.12
8.1
8.048
8.084
8.12
8.108
8.032
8.08
8.112
8.112
8.04
8.108
8.088
8.12
8.044
8.092
8.088
8.136
8.072
8.076
8.056
8.128
8.08
8.04
8.036
8.108
8.072
8.028
8.032
8.092
8.068
7.992
8.028
8.072
8.076
8.008
8.056
8.068
8.084
8
8.06
8.02
8.096
8.028
8.032
8.008
8.096
8.048
8.032
8.02
8.088
8.064
8.008
8.056
8.096
8.056
8.008
8.048
8.08
8.092
8.008
8.072
8.056
8.08
8.032
8.092
8.056
8.096
8.052
8.048
8.072
8.12
8.056
8.036
8.056
8.092
8.08
8.016
8.056
8.088
8.084
8.02
8.064
8.084
8.076
8.024
8.076
8.06
8.104
8.024
8.092
8.06
8.136
8.052
8.076
8.06
8.112
8.096
8.072
8.124
8.172
8.168
8.152
8.208
8.232
8.24
8.216
8.296
8.292
8.32
8.268
8.296
8.304
8.312
8.224
8.244
8.212
8.196
8.096
8.08
8.112
8.14
8.08
8.052
8.072
8.108
8.076
7.992
8.06
8.096
8.092
7.984
8.04
8.016
7.992
7.896
7.936
8.316
9.02
9.896
10.84
10.952
10.436
9.952
9.62
9.108
8.712
8.336
8.184
8.204
8.26
8.236
8.108
8.124
8.14
8.108
8.032
8.096
8.072
8.088
8.036
8.112
8.104
8.104
8.032
8.096
8.076
8.124
8.06
8.052
8.048
8.092
8.064
8.032
8.04
8.104
8.076
8
8.064
8.116
8.116
8.024
8.084
8.132
8.132
8.052
8.12
8.12
8.168
8.14
8.152
8.136
8.2
8.172
8.192
8.184
8.256
8.228
8.208
8.26
8.32
8.296
8.244
8.34
8.36
8.392
8.34
8.424
8.452
8.512
8.448
8.508
8.516
8.564
8.512
8.576
8.592
8.636
8.56
8.552
8.556
8.556
8.504
8.42
8.404
8.412
8.348
8.232
8.268
8.22
8.204
8.108
8.164
8.136
8.132
8.04
8.088
8.064
8.084
8.028
8.044
8.032
8.056
8.052
8.024
8.048
8.084
8.028
8
8.048
8.08
8.056
7.976
8.056
8.088
8.068
7.98
8.068
8.072
8.1
7.996
8.08
8.048
8.08
8.008
8.032
8.036
8.072
8.036
8.028
8.056
8.064
8.04
7.984
8.02
8.056
8.028
7.94
8
8.028
8.008
7.948
8.028
8
8.032
7.964
8.016
8.008
8.028
7.964
7.988
7.988
8.052
7.984
7.944
7.98
8.044
8.016
7.948
7.996
8.032
7.98
7.92
8
8.02
8.008
7.948
8.004
8.008
8.02
7.924
7.984
8.024
8.04
7.992
7.984
7.996
8.036
7.984
7.96
7.984
8.032
7.972
7.936
8.024
8.036
8
7.928
7.996
8.016
8.032
7.932
8
8
8.004
7.96
8
8
8.04
7.964
7.988
7.988
8.052
7.988
7.952
7.996
8.06
8.028
7.996
8.116
8.164
8.14
8.064
8.192
8.22
8.22
8.144
8.212
8.228
8.216
8.168
8.188
8.188
8.192
8.056
8.004
8.032
8.044
7.98
7.948
7.996
8
7.968
7.904
7.964
7.996
7.94
7.888
7.992
7.98
7.892
7.764
7.844
7.78
8.024
8.58
9.54
10.488
11.08
10.54
10.016
9.712
9.332
8.792
8.36
8.136
8.156
8.124
8.044
8.1
8.108
8.028
7.908
8.004
8.032
8.004
7.936
7.984
7.98
8.024
7.956
8.032
7.988
8.016
7.968
7.98
7.98
8.004
7.988
7.936
7.988
8.004
7.984
7.928
7.98
8.008
7.992
7.916
8.032
8.056
8.048
7.96
8.048
8.028
8.032
7.98
8.036
8.036
8.084
8.052
8.064
8.108
8.164
8.104
8.084
8.144
8.184
8.188
8.152
8.248
8.248
8.272
8.22
8.332
8.368
8.388
8.316
8.432
8.444
8.492
8.428
8.456
8.496
8.56
8.5
8.512
8.524
8.56
8.484
8.376
8.452
8.44
8.352
8.24
8.28
8.272
8.2
8.08
8.148
8.112
8.112
8
8.056
8.064
8.04
7.972
7.996
8.024
8.008
7.968
7.948
8.028
8.048
7.98
7.912
8.02
8.048
8.008
7.948
8.032
8.016
8.008
7.928
8.052
8.04
8.004
7.944
8.048
8.028
8.016
7.948
7.992
8
8.02
7.968
7.952
8.004
8.02
7.996
7.92
8.008
8
7.984
7.916
8.004
8.008
7.976
7.916
7.976
8.02
7.968
7.936
7.968
7.952
8
7.932
7.932
7.972
7.976
7.944
7.944
8.012
8.016
7.972
7.908
7.988
7.996
7.948
7.92
7.996
8
7.984
7.948
7.992
8.008
7.992
7.94
7.952
7.988
7.984
7.948
7.964
8.044
8.032
7.96
7.936
8.008
8.016
7.976
7.9
7.956
8.02
7.98
7.928
7.976
8.032
7.996
7.952
7.964
8.024
7.996
7.964
7.944
8.028
8.016
7.956
7.948
7.996
8.028
7.972
7.976
8.056
8.068
8.092
8.088
8.104
8.156
8.136
8.108
8.176
8.244
8.22
8.18
8.184
8.236
8.204
8.136
8.144
8.168
8.072
7.98
7.984
8.044
8.032
7.956
7.924
8.004
8.028
7.952
7.916
7.96
8.024
7.964
7.908
7.928
7.924
7.856
7.748
7.832
8.376
9.148
10.08
11.024
10.964
10.348
9.888
9.536
9.068
8.608
8.248
8.124
8.16
8.204
8.136
8.06
8.056
8.08
8.032
7.984
8.008
8.064
8.024
7.976
8
8.06
8.036
7.968
7.992
8.032
8.072
7.976
7.976
8.052
8.044
8
7.98
8.02
8.04
7.992
7.984
8.048
8.116
8.056
8.024
8.056
8.104
8.088
8.04
8.068
8.1
8.124
8.06
8.096
8.144
8.176
8.132
8.132
8.192
8.216
8.176
8.172
8.256
8.288
8.272
8.224
8.3
8.38
8.364
8.344
8.4
8.464
8.468
8.436
8.5
8.552
8.556
8.508
8.552
8.628
8.624
8.552
8.536
8.58
8.56
8.464
8.416
8.404
8.412
8.324
8.252
8.268
8.248
8.168
8.084
8.132
8.172
8.14
8.036
8.068
8.112
8.092
8.024
8.044
8.092
8.092
8.052
8.02
8.088
8.076
8.072
8.044
8.084
8.092
8.052
7.992
8.088
8.104
8.048
8.004
8.04
8.136
8.104
8.064
8.084
8.124
8.1
8.036
8.056
8.104
8.092
8.028
8.024
8.096
8.116
8.052
8.02
8.088
8.088
8.052
8.012
8.072
8.088
8.06
8.004
8.048
8.088
8.04
7.992
8.028
8.064
8.036
8.008
8.004
8.112
8.092
8.028
8.012
8.056
8.092
8.008
7.984
8.052
8.072
8.02
8.004
8.068
8.08
8.052
7.992
8.06
8.116
8.052
8.02
8.04
8.088
8.076
8.028
8.024
8.06
8.064
8.008
8.024
8.08
8.084
8.016
8.004
8.068
8.092
8.016
7.992
8.084
8.112
8.012
7.984
8.064
8.084
8.048
8.008
8.04
8.076
8.044
7.996
8.052
8.08
8.068
8.016
8.02
8.1
8.104
8.092
8.076
8.192
8.204
8.172
8.18
8.26
8.288
8.26
8.236
8.308
8.308
8.264
8.236
8.288
8.284
8.256
8.14
8.136
8.128
8.132
8.068
8.036
8.096
8.08
8.064
8.036
8.088
8.088
8.056
8.044
8.12
8.08
8.044
7.92
8.004
7.928
7.916
8.348
9.164
10.092
11.012
10.916
10.332
9.94
9.592
9.044
8.58
8.364
8.272
8.22
8.208
8.272
8.196
8.14
8.068
8.164
8.12
8.12
8.04
8.144
8.108
8.108
8.052
8.14
8.108
8.12
8.052
8.088
8.144
8.132
8.084
8.076
8.152
8.148
8.088
8.064
8.148
8.152
8.128
8.1
8.192
8.16
8.124
8.1
8.196
8.164
8.152
8.108
8.192
8.212
8.2
8.164
8.192
8.22
8.236
8.228
8.22
8.292
8.316
8.256
8.244
8.36
8.36
8.348
8.332
8.488
8.48
8.48
8.432
8.54
8.584
8.572
8.544
8.624
8.636
8.636
8.616
8.66
8.676
8.652
8.588
8.568
8.6
8.552
8.472
8.4
8.464
8.392
8.324
8.244
8.3
8.236
8.216
8.144
8.216
8.204
8.148
8.116
8.172
8.152
8.132
8.072
8.1
8.144
8.144
8.08
8.068
8.144
8.136
8.104
8.076
8.192
8.148
8.112
8.076
8.148
8.128
8.128
8.072
8.184
8.152
8.124
8.068
8.156
8.152
8.148
8.064
8.112
8.144
8.14
8.096
8.084
8.148
8.12
8.096
8.064
8.132
8.136
8.096
8.068
8.164
8.152
8.132
8.056
8.152
8.14
8.136
8.064
8.1
8.132
8.128
8.084
8.092
8.104
8.112
8.056
8.072
8.172
8.128
8.08
8.044
8.16
8.128
8.084
8.032
8.116
8.1
8.104
8.028
8.12
8.136
8.1
8.048
8.112
8.124
8.104
8.068
8.08
8.14
8.128
8.036
8.048
8.148
8.136
8.06
8.052
8.132
8.116
8.08
8.044
8.164
8.124
8.076
8.056
8.156
8.148
8.092
8.036
8.08
8.1
8.096
8.064
8.06
8.12
8.12
8.084
8.096
8.184
8.172
8.152
8.164
8.264
8.28
8.24
8.228
8.28
8.296
8.26
8.22
8.292
8.26
8.228
8.168
8.208
8.148
8.1
8.068
8.08
8.128
8.08
8.008
8.028
8.132
8.072
8.04
7.988
8.08
8.06
8.02
7.956
7.976
7.944
7.872
7.848
8.4
9.128
10.064
10.904
10.868
10.328
9.92
9.552
9.056
8.7
8.32
8.212
8.18
8.276
8.2
8.148
8.052
8.156
8.076
8.056
8.032
8.12
8.056
8.048
8.004
8.096
8.088
8.072
8.028
8.072
8.084
8.06
8.04
8.044
8.136
8.084
8.052
8.06
8.156
8.132
8.06
8.024
8.128
8.092
8.076
8.036
8.148
8.128
8.132
8.072
8.128
8.152
8.12
8.108
8.16
8.204
8.144
8.092
8.156
8.26
8.216
8.176
8.18
8.34
8.296
8.304
8.292
8.412
8.364
8.372
8.36
8.504
8.496
8.468
8.444
8.536
8.564
8.544
8.52
8.56
8.644
8.576
8.52
8.532
8.552
8.5
8.436
8.368
8.436
8.312
8.26
8.212
8.292
8.228
8.116
8.076
8.188
8.16
8.068
8
8.092
8.112
8.036
7.992
8.036
8.092
8.052
8
8.032
8.1
8.04
7.968
7.984
8.116
8.06
8.004
7.972
8.12
8.08
8.036
7.992
8.072
8.02
7.988
7.988
8.016
8.036
8.008
7.948
8.02
8.048
8
7.94
7.952
8.056
8.012
7.968
7.928
8.076
7.996
7.976
7.952
8.044
7.988
7.948
7.94
8.016
7.988
7.98
7.948
7.988
8.02
7.98
7.936
7.952
8.024
7.992
7.932
7.928
8.048
8.012
7.968
7.968
8.04
7.988
7.932
7.932
8.04
8.016
7.96
7.928
8.02
8.024
7.972
7.92
7.964
8.012
7.98
7.952
7.952
8.032
7.964
7.924
7.96
8.048
8
7.952
7.952
8.044
8.016
7.952
7.944
8.048
7.988
7.996
7.956
8.024
8.008
7.976
7.948
8.016
8.02
7.976
7.948
8.016
8.104
8.08
8.052
8.044
8.172
8.16
8.148
8.132
8.22
8.192
8.2
8.148
8.256
8.184
8.128
8.116
8.204
8.096
7.956
7.944
7.992
8.04
7.948
7.924
7.936
8.008
7.964
7.888
7.904
8.02
7.96
7.932
7.912
7.968
7.84
7.768
7.704
8.132
8.772
9.652
10.588
11.148
10.612
10.028
9.68
9.256
8.82
8.388
8.14
8.164
8.2
8.124
8.048
7.996
8.068
8.02
7.952
7.948
8.04
7.992
7.924
7.928
8.024
7.984
7.96
7.908
8.004
7.968
7.94
7.912
7.968
8.036
7.936
7.924
7.98
8.072
7.996
7.912
7.948
8.032
7.984
7.94
7.948
8.088
8.02
7.988
7.948
8.088
8.06
8.016
8.004
8.08
8.112
8.076
8.032
8.1
8.176
8.144
8.104
8.144
8.256
8.208
8.208
8.256
8.384
8.324
8.304
8.308
8.464
8.448
8.452
8.416
8.56
8.56
8.532
8.516
8.604
8.636
8.584
8.532
8.56
8.572
8.5
8.404
8.428
8.476
8.376
8.296
8.284
8.348
8.236
8.164
8.128
8.216
8.136
8.084
8.056
8.132
8.08
8.048
8.032
8.072
8.088
8.04
7.98
8.068
8.12
8.048
8
8.008
8.112
8.044
8.032
8.012
8.128
8.052
8.004
7.992
8.1
8.04
7.992
7.992
8.072
8.068
8.012
7.972
8.048
8.08
8.012
7.964
8.024
8.1
8.02
8.004
8.004
8.112
8.016
7.992
8.016
8.108
8.016
7.98
7.968
8.096
8.04
7.992
7.98
8.044
8.056
8.004
7.976
8.032
8.056
8.012
7.976
8.024
8.076
8
7.976
8.004
8.108
8.016
7.984
7.964
8.028
8.036
7.984
8.004
8.052
8.044
7.988
8
8.06
8.08
7.984
7.972
8.012
8.072
8.028
7.972
8
8.088
8.04
7.984
8
8.056
8.032
7.968
7.996
8.072
8.036
7.972
7.984
8.044
8.072
8
7.956
8.016
8.088
8.028
7.98
8.024
8.08
8.028
7.96
8.036
8.084
8.052
8.056
8.124
8.148
8.152
8.104
8.132
8.26
8.252
8.192
8.176
8.264
8.284
8.236
8.212
8.224
8.232
8.192
8.108
8.076
8.092
8.028
7.976
8.012
8.096
8.008
7.976
7.972
8.076
8.02
7.952
7.972
8.048
8.016
7.96
7.9
7.916
7.888
7.876
8.388
9.22
10.24
11.02
10.78
10.276
9.936
9.484
8.952
8.508
8.352
8.224
8.164
8.18
8.192
8.136
8.048
8.04
8.092
8.084
8.016
8.02
8.076
8.076
8.024
8
8.052
8.112
8.012
7.984
8.032
8.096
8.056
8.012
8.028
8.08
8.056
8
8.06
8.148
8.096
8.044
8.06
8.14
8.116
8.052
8.056
8.136
8.132
8.104
8.076
8.144
8.2
8.116
8.108
8.164
8.24
8.168
8.168
8.2
8.3
8.244
8.216
8.256
8.34
8.352
8.336
8.36
8.408
8.456
8.428
8.42
8.512
8.552
8.484
8.5
8.612
8.676
8.604
8.596
8.644
8.72
8.628
8.572
8.568
8.572
8.504
8.436
8.412
8.432
8.372
8.272
8.22
8.248
8.256
8.14
8.116
8.192
8.156
8.064
8.052
8.1
8.112
8.072
8.032
8.064
8.14
8.068
8.02
8.056
8.152
8.088
8.024
8.008
8.16
8.096
8.016
8.036
8.128
8.12
8.044
8.032
8.092
8.132
8.048
8.024
8.072
8.132
8.068
8.048
8.076
8.148
8.104
8.048
8.064
8.132
8.108
8.048
8.04
8.128
8.104
8.036
8.052
8.116
8.144
8.048
8.048
8.124
8.156
8.04
8.056
8.112
8.156
8.1
8.048
8.06
8.156
8.14
8.072
8.072
8.176
8.124
8.068
8.096
8.18
8.14
8.072
8.088
8.18
8.152
8.08
8.044
8.12
8.184
8.088
8.068
8.116
8.172
8.1
8.08
8.088
8.176
8.096
8.056
8.076
8.168
8.108
8.036
8.068
8.156
8.152
8.056
8.036
8.144
8.136
8.044
8.032
8.116
8.152
8.068
8.052
8.096
8.16
8.084
8.056
8.072
8.156
8.084
8.068
8.124
8.228
8.188
8.148
8.176
8.292
8.288
8.232
8.24
8.32
8.344
8.256
8.24
8.344
8.32
8.216
8.188
8.2
8.212
8.108
8.072
8.104
8.16
8.06
8.044
8.024
8.144
8.08
8.028
8.016
8.124
8.088
7.976
7.98
8.008
7.98
7.84
7.88
8.452
9.24
10.056
10.908
10.776
10.288
9.856
9.5
9.028
8.672
8.32
8.196
8.208
8.296
8.216
8.092
8.076
8.16
8.108
8.008
8.02
8.088
8.056
7.992
8.012
8.068
8.116
8.024
8
8.072
8.124
8.02
7.988
8.012
8.112
8.04
7.992
8.032
8.128
8.056
7.992
8.044
8.14
8.104
8.024
8.044
8.14
8.136
8.04
8.044
8.128
8.168
8.084
8.06
8.152
8.22
8.124
8.116
8.148
8.26
8.176
8.148
8.188
8.316
8.26
8.224
8.272
8.392
8.392
8.308
8.368
8.484
8.504
8.42
8.444
8.528
8.588
8.504
8.52
8.6
8.648
8.528
8.508
8.524
8.616
8.496
8.404
8.38
8.464
8.336
8.224
8.192
8.264
8.2
8.056
8.076
8.14
8.132
7.996
8.02
8.092
8.116
8
7.956
8.032
8.076
7.996
7.96
7.992
8.068
7.992
7.968
7.976
8.092
8
7.92
7.968
8.072
8.028
7.916
7.956
8.036
8.056
7.948
7.948
8.024
8.048
7.96
7.96
8.008
8.06
7.988
7.936
7.964
8.068
7.98
7.936
7.964
8.052
7.996
7.908
7.928
8.06
8.008
7.912
7.94
8.016
8.024
7.912
7.94
8
8.04
7.944
7.928
7.996
8.024
7.968
7.916
7.948
8.024
7.976
7.904
7.952
8.036
7.988
7.928
7.94
8.032
7.984
7.9
7.944
8.024
8.024
7.916
7.916
7.992
8.02
7.928
7.912
7.98
8.028
7.952
7.928
7.924
8.052
7.972
7.92
7.956
8.012
7.968
7.904
7.948
8.044
8
7.92
7.932
8
8.008
7.908
7.94
7.984
8.02
7.924
7.932
7.956
8.02
7.96
7.96
8.032
8.128
8.072
8.016
8.076
8.208
8.188
8.108
8.12
8.228
8.24
8.14
8.12
8.192
8.188
8.112
8.12
8.084
8.068
7.968
7.928
7.996
8.036
7.956
7.912
7.94
8.036
7.972
7.888
7.92
8.016
7.972
7.904
7.9
7.892
7.848
7.684
7.904
8.6
9.5
10.356
11.012
10.676
10.168
9.772
9.32
8.884
8.524
8.224
8.14
8.156
8.216
8.092
7.984
7.988
8.064
7.98
7.92
7.964
8.06
8.016
7.924
7.956
7.988
8.036
7.956
7.92
7.988
8.028
7.936
7.956
7.984
8.036
7.96
7.924
7.96
8.056
8.012
7.92
7.964
8.044
7.996
7.964
8
8.056
8.032
7.976
8.016
8.072
8.096
8.008
8.024
8.088
8.144
8.068
8.084
8.148
8.188
8.164
8.14
8.18
8.268
8.236
8.184
8.28
8.356
8.34
8.292
8.372
8.452
8.476
8.384
8.436
8.52
8.552
8.484
8.516
8.576
8.632
8.548
8.48
8.536
8.552
8.46
8.392
8.372
8.404
8.32
8.188
8.212
8.244
8.204
8.092
8.116
8.144
8.152
8.008
8.02
8.092
8.08
7.996
8.008
8.044
8.068
8.004
8.008
8.056
8.104
8.032
8.012
8.032
8.1
8.056
7.984
8.044
8.088
8.072
7.98
8.036
8.088
8.06
7.988
7.988
8.072
8.104
7.992
8.004
8.044
8.12
8.016
7.996
8.044
8.096
8.02
7.988
8.04
8.076
8.064
7.98
8.024
8.06
8.032
7.972
8.024
8.096
8.064
7.968
7.972
8.052
8.064
7.992
8.02
8.048
8.1
8.008
8.028
8.06
8.076
8.036
7.96
8.036
8.096
8.052
7.964
8.048
8.096
8.064
7.952
8.028
8.064
8.064
7.976
7.996
8.052
8.084
7.98
7.984
8.032
8.084
7.996
7.98
8.048
8.072
8.012
7.976
8.032
8.076
8.048
7.972
8.02
8.056
8.028
7.968
8.012
8.056
8.064
7.98
8.008
8.044
8.068
7.988
8
8.048
8.096
8.016
7.984
8.068
8.096
8.08
8.064
8.132
8.168
8.184
8.124
8.208
8.276
8.264
8.176
8.248
8.308
8.312
8.172
8.188
8.24
8.272
8.184
8.088
8.104
8.136
8.06
8.032
8.088
8.108
8.06
7.988
8.044
8.092
8.064
7.972
8.036
8.104
8.052
7.916
7.92
7.952
7.94
8.292
9.084
10.084
11
10.908
10.344
10.024
9.704
9.088
8.612
8.368
8.352
8.264
8.192
8.224
8.236
8.152
8.072
8.104
8.156
8.12
8.028
8.084
8.152
8.14
8.04
8.088
8.132
8.172
8.052
8.08
8.136
8.156
8.072
8.068
8.12
8.168
8.112
8.052
8.128
8.184
8.152
8.04
8.14
8.212
8.176
8.072
8.136
8.208
8.228
8.112
8.16
8.216
8.244
8.172
8.156
8.264
8.292
8.24
8.204
8.308
8.348
8.312
8.26
8.352
8.444
8.42
8.36
8.436
8.532
8.536
8.48
8.528
8.596
8.628
8.568
8.616
8.728
8.728
8.676
8.632
8.744
8.748
8.66
8.568
8.628
8.624
8.548
8.408
8.456
8.436
8.392
8.276
8.272
8.324
8.272
8.168
8.196
8.256
8.224
8.152
8.1
8.204
8.2
8.144
8.068
8.176
8.212
8.14
8.104
8.164
8.192
8.132
8.068
8.14
8.212
8.18
8.088
8.144
8.22
8.208
8.136
8.116
8.2
8.208
8.152
8.112
8.188
8.188
8.132
8.132
8.192
8.212
8.152
8.096
8.18
8.204
8.148
8.096
8.148
8.2
8.188
8.116
8.148
8.216
8.18
8.112
8.14
8.212
8.168
8.12
8.124
8.2
8.22
8.128
8.104
8.204
8.232
8.168
8.08
8.152
8.22
8.176
8.12
8.136
8.216
8.168
8.1
8.116
8.192
8.156
8.076
8.084
8.188
8.172
8.076
8.064
8.156
8.176
8.084
8.064
8.148
8.184
8.108
8.084
8.108
8.188
8.136
8.088
8.08
8.196
8.136
8.08
8.064
8.16
8.176
8.108
8.064
8.14
8.172
8.124
8.076
8.124
8.176
8.1
8.108
8.072
8.188
8.112
8.144
8.152
8.256
8.268
8.216
8.212
8.276
8.368
8.316
8.324
8.312
8.364
8.304
8.328
8.308
8.376
8.276
8.264
8.252
8.212
8.168
8.116
8.144
8.184
8.14
8.116
8.144
8.168
8.148
8.108
8.116
8.136
8.132
8.1
8.084
8.032
8.012
7.908
7.964
8.516
9.304
10.144
10.96
10.82
10.296
9.904
9.524
9.096
8.668
8.348
8.248
8.312
8.324
8.232
8.124
8.188
8.204
8.14
8.064
8.128
8.168
8.148
8.096
8.136
8.168
8.128
8.092
8.08
8.16
8.124
8.056
8.1
8.18
8.18
8.092
8.104
8.14
8.192
8.136
8.096
8.156
8.192
8.168
8.116
8.172
8.22
8.18
8.088
8.176
8.228
8.228
8.148
8.2
8.28
8.276
8.2
8.212
8.292
8.292
8.272
8.248
8.36
8.384
8.36
8.348
8.416
8.484
8.44
8.424
8.488
8.576
8.568
8.52
8.556
8.668
8.66
8.612
8.624
8.704
8.72
8.636
8.636
8.672
8.64
8.572
8.516
8.54
8.504
8.412
8.34
8.332
8.336
8.284
8.22
8.208
8.228
8.184
8.152
8.16
8.164
8.152
8.116
8.092
8.124
8.156
8.088
8.08
8.112
8.152
8.092
8.1
8.108
8.156
8.116
8.064
8.092
8.16
8.1
8.072
8.088
8.192
8.136
8.044
8.08
8.148
8.132
8.044
8.04
8.124
8.132
8.116
8.024
8.12
8.132
8.06
8.028
8.1
8.12
8.108
8.02
8.088
8.124
8.096
8.044
8.068
8.14
8.1
8.016
8.016
8.12
8.092
8.048
8.036
8.092
8.128
8.02
7.996
8.068
8.092
8.032
8.016
8.076
8.108
8.06
8
8.028
8.108
8.068
7.984
8.032
8.084
8.088
8
7.972
8.068
8.104
7.992
7.988
8.052
8.1
8.024
7.984
8.044
8.088
8.02
7.988
8.012
8.048
8.04
7.972
8.004
8.116
8.076
7.976
8.06
8.128
8.08
8.024
7.988
8.076
8.1
8.008
8.004
8.108
8.092
8.08
8.004
8.072
8.152
8.124
8.108
8.172
8.24
8.184
8.196
8.228
8.336
8.26
8.188
8.18
8.28
8.3
8.164
8.192
8.248
8.224
8.02
8.004
8.096
8.076
7.984
7.924
8.004
8
7.956
7.94
7.984
7.996
7.972
7.912
7.924
7.964
7.88
7.796
7.756
7.864
8.324
9
9.908
10.82
10.708
10.124
9.768
9.564
9.056
8.488
8.08
8.076
8.184
8.132
8.104
8.036
8.06
7.948
7.9
7.888
7.968
7.928
7.904
7.94
8.104
8.024
7.944
7.844
7.908
7.868
7.892
7.876
7.924
7.884
7.876
7.824
7.988
8.088
7.964
7.856
7.864
7.888
7.796
7.864
8.02
8.084
8.044
7.96
7.948
7.972
7.892
7.992
8.032
8.016
7.996
8.096
8.04
8.184
8.06
7.952
7.956
8.212
8.352
8.372
8.316
8.508
8.4
8.34
8.284
8.268
8.384
8.528
8.544
8.472
8.6
8.668
8.636
8.568
8.6
8.676
8.668
8.592
8.592
8.492
8.34
8.38
8.504
8.412
8.3
8.204
8.28
8.32
8.188
8.076
8.132
8.092
8.016
7.968
7.996
8.008
7.896
7.796
7.712
7.768
7.712
7.624
7.704
7.856
7.796
7.74
7.676
7.82
7.844
7.776
7.776
7.84
7.916
7.892
7.876
7.936
7.956
7.952
7.924
7.916
8
8.032
7.984
7.972
8.068
8.016
7.976
8.008
8.092
8.132
8.088
8.016
8.08
8.036
7.956
7.936
8.008
8.048
7.952
7.892
8.008
8.004
7.944
7.9
7.892
8.02
7.94
7.892
7.868
7.956
7.948
7.844
7.816
7.868
7.848
7.808
7.752
7.776
7.768
7.684
7.656
7.72
7.756
7.704
7.692
7.744
7.836
7.868
7.804
7.84
7.936
7.908
7.88
7.916
7.972
7.988
7.932
7.932
8
7.98
7.928
7.944
8.028
8.044
8.012
7.968
8.028
8.056
8.068
8.048
8.096
8.156
8.14
8.08
8.148
8.224
8.196
8.148
8.192
8.248
8.232
8.188
8.172
8.2
8.192
8.144
8.1
8.096
8.024
7.992
7.948
7.992
7.996
7.964
7.924
7.964
7.996
7.944
7.92
7.924
7.972
7.948
7.888
7.856
7.888
7.808
7.704
7.912
8.644
9.504
10.44
10.964
10.488
9.996
9.728
9.22
8.776
8.4
8.212
8.16
8.164
8.184
8.128
8.036
8.036
8.036
8.008
8.012
8.012
8.04
8.004
8.008
7.964
8.044
7.98
7.992
7.976
8.044
8.012
8.032
7.992
8.016
7.992
8.052
7.992
8.008
8.02
8.068
8.032
8.056
8.092
8.076
8.016
8.076
8.132
8.148
8.096
8.12
8.188
8.148
8.14
8.136
8.204
8.156
8.204
8.192
8.224
8.228
8.328
8.248
8.332
8.368
8.372
8.368
8.408
8.432
8.48
8.48
8.5
8.556
8.588
8.592
8.62
8.688
8.632
8.68
8.692
8.772
8.692
8.656
8.644
8.64
8.616
8.596
8.496
8.528
8.46
8.432
8.356
8.348
8.3
8.272
8.244
8.248
8.236
8.156
8.208
8.152
8.172
8.124
8.136
8.136
8.168
8.148
8.172
8.156
8.192
8.156
8.172
8.176
8.184
8.168
8.204
8.192
8.196
8.168
8.22
8.16
8.176
8.188
8.22
8.164
8.144
8.148
8.208
8.208
8.18
8.204
8.188
8.196
8.168
8.216
8.188
8.184
8.164
8.184
8.208
8.24
8.18
8.176
8.172
8.24
8.156
8.156
8.184
8.22
8.16
8.16
8.164
8.176
8.136
8.128
8.172
8.148
8.148
8.104
8.152
8.128
8.168
8.108
8.128
8.096
8.176
8.076
8.076
8.116
8.156
8.076
8.128
8.128
8.12
8.104
8.096
8.112
8.136
8.108
8.076
8.124
8.12
8.116
8.084
8.116
8.108
8.136
8.1
8.096
8.112
8.136
8.08
8.136
8.124
8.144
8.08
8.096
8.148
8.232
8.184
8.172
8.232
8.28
8.264
8.26
8.304
8.344
8.296
8.288
8.324
8.356
8.348
8.236
8.264
8.256
8.284
8.144
8.096
8.136
8.164
8.096
8.072
8.08
8.092
8.024
8.064
8.072
8.1
8.048
8.012
8.044
8.064
7.98
7.912
7.888
7.852
8.292
8.94
9.804
10.712
10.82
10.172
9.836
9.592
9.076
8.596
8.3
8.252
8.264
8.2
8.188
8.132
8.164
8.112
8.044
8.072
8.136
8.108
8.048
8.068
8.116
8.104
8.04
8.104
8.12
8.108
8.044
8.092
8.124
8.144
8.056
8.076
8.116
8.144
8.068
8.096
8.088
8.168
8.12
8.12
8.14
8.204
8.136
8.104
8.128
8.168
8.168
8.124
8.188
8.22
8.264
8.18
8.228
8.232
8.256
8.216
8.248
8.3
8.332
8.34
8.392
8.428
8.428
8.428
8.408
8.496
8.548
8.544
8.496
8.584
8.608
8.612
8.572
8.632
8.676
8.688
8.624
8.636
8.652
8.632
8.544
8.508
8.464
8.444
8.372
8.324
8.332
8.3
8.248
8.18
8.168
8.168
8.136
8.088
8.116
8.144
8.096
8.048
8.064
8.1
8.1
8.012
8.076
8.068
8.112
8.04
8.08
8.096
8.108
8.052
8.076
8.092
8.136
8.052
8.072
8.104
8.16
8.116
8.068
8.092
8.144
8.12
8.084
8.112
8.16
8.136
8.04
8.096
8.108
8.124
8.06
8.076
8.144
8.132
8.068
8.036
8.064
8.092
8.056
8.06
8.092
8.152
8.096
8.044
8.048
8.076
8.036
8.016
8.064
8.064
8.032
7.996
7.996
8.064
8.044
7.988
8
8.012
8.032
7.992
7.988
8.02
8.028
7.968
7.976
8.016
8.028
8.016
7.944
7.972
8.028
7.996
7.968
8.012
8.064
8.02
7.948
7.984
8.044
8.052
7.936
7.948
7.984
8.024
7.96
7.972
8.012
8.068
8.008
8.024
8.064
8.136
8.116
8.064
8.144
8.208
8.172
8.12
8.184
8.184
8.236
8.164
8.132
8.176
8.184
8.12
8.004
8
7.996
7.94
7.92
7.928
8.008
7.928
7.904
7.908
7.976
7.98
7.912
7.912
7.952
7.864
7.792
7.8
7.772
7.716
8.156
8.944
9.852
10.704
10.728
10.108
9.704
9.416
8.924
8.452
8.128
8.064
8.032
8.076
8.112
8.104
7.98
7.908
7.872
7.94
7.916
7.92
7.944
7.96
7.968
7.9
7.912
7.924
7.912
7.864
7.88
7.892
7.92
7.864
7.892
7.904
7.952
7.876
7.884
7.92
7.944
7.936
7.912
7.948
7.948
7.94
7.892
7.936
7.96
7.94
7.936
7.96
8.012
7.968
7.952
8.028
8.052
8.032
8.004
8.024
8.088
8.14
8.124
8.1
8.164
8.248
8.192
8.164
8.188
8.284
8.292
8.244
8.276
8.324
8.364
8.316
8.356
8.388
8.44
8.42
8.424
8.428
8.388
8.364
8.324
8.32
8.296
8.232
8.188
8.188
8.116
8.012
8.024
8.012
8.044
7.992
7.924
7.936
7.952
7.964
7.92
7.924
7.884
7.924
7.864
7.912
7.944
7.948
7.908
7.872
7.956
7.944
7.904
7.932
7.94
7.972
7.932
7.936
7.992
7.964
7.908
7.872
7.928
7.952
7.928
7.896
7.92
7.968
7.956
7.892
7.936
7.936
7.932
7.852
7.848
7.94
7.92
7.928
7.88
7.968
8.02
7.94
7.856
7.876
7.94
7.912
7.868
7.896
7.932
7.884
7.812
7.928
7.976
7.956
7.852
7.888
7.952
7.968
7.908
7.88
7.956
7.972
7.928
7.86
7.924
7.936
7.888
7.872
7.964
7.984
7.96
7.896
7.904
7.928
7.92
7.976
7.988
8.036
7.908
7.884
7.944
7.98
8.012
8.036
8.056
8.148
8.096
8.056
8.052
8.124
8.116
8.088
8.1
8.196
8.188
8.196
8.152
8.128
8.16
8.072
7.988
7.984
8.056
7.98
7.884
7.88
7.936
7.96
7.944
7.9
7.924
7.984
7.912
7.868
7.92
7.908
7.896
7.812
7.828
7.816
8.144
8.844
9.864
10.864
11.416
10.632
9.828
9.332
8.852
8.372
8.052
8.024
8.084
8.116
8.132
8.116
8.06
7.976
7.928
8.028
8.104
7.968
7.884
7.924
7.984
8.044
8.028
7.976
7.928
7.964
7.996
7.964
7.996
7.956
7.972
7.956
8.068
8.08
8.056
7.992
8
8.036
8.028
8.036
8.012
8.008
8.056
8.008
8.072
8.108
8.1
8.06
8.064
8.1
8.116
8.092
8.06
8.16
8.224
8.188
8.148
8.192
8.26
8.28
8.276
8.312
8.28
8.32
8.356
8.412
8.416
8.452
8.512
8.588
8.564
8.544
8.504
8.5
8.568
8.58
8.552
8.568
8.576
8.488
8.512
8.548
8.504
8.38
8.28
8.208
8.208
8.14
8.136
8.052
8.056
8.096
8.076
7.992
8.008
8
7.992
7.996
7.992
7.96
7.972
7.964
7.936
8.04
8.064
7.956
7.912
7.84
7.936
7.96
7.96
8.024
8.056
8.044
7.984
8.012
7.968
7.952
7.992
8.06
8.068
7.984
7.948
7.984
7.972
8.008
7.992
7.96
7.976
7.984
7.996
7.984
7.952
7.932
7.928
7.976
8.056
8.02
7.94
7.94
7.956
7.94
7.936
7.944
8.012
8.024
7.964
7.944
7.944
7.992
7.948
7.904
7.92
7.924
7.932
7.944
7.948
7.96
7.956
7.948
7.932
7.988
7.996
7.992
7.912
7.956
7.964
7.996
7.944
7.936
7.964
7.976
7.988
8.024
8.02
8
8.04
8.084
8.108
8.144
8.132
8.148
8.196
8.208
8.2
8.188
8.268
8.188
8.184
8.164
8.224
8.224
8.104
7.976
8.012
8.032
7.996
7.916
7.944
7.988
8.004
8
7.912
7.96
7.928
7.948
7.964
8.016
8.052
7.96
7.904
7.972
7.948
8.38
9.24
10.304
11.212
11.28
10.424
9.688
9.168
8.612
8.224
8.088
8.148
8.16
8.168
8.18
8.24
8.1
8.096
8.088
8.128
8.092
8.068
8.072
8.144
8.132
8.064
8.016
8.052
8.048
8.068
8.06
8.104
8.12
8.072
8.076
8.096
8.14
8.136
8.072
8.088
8.136
8.18
8.132
8.128
8.184
8.168
8.14
8.1
8.188
8.188
8.188
8.188
8.24
8.24
8.252
8.224
8.24
8.288
8.324
8.316
8.364
8.376
8.368
8.396
8.392
8.48
8.48
8.504
8.544
8.608
8.596
8.6
8.6
8.724
8.716
8.684
8.72
8.744
8.752
8.748
8.784
8.784
8.748
8.68
8.656
8.608
8.58
8.528
8.44
8.364
8.36
8.312
8.264
8.196
8.204
8.152
8.144
8.144
8.18
8.124
8.096
8.096
8.136
8.136
8.116
8.116
8.128
8.14
8.116
8.088
8.124
8.136
8.124
8.128
8.12
8.164
8.136
8.172
8.132
8.168
8.156
8.148
8.152
8.164
8.176
8.144
8.136
8.176
8.212
8.176
8.152
8.152
8.176
8.16
8.152
8.156
8.156
8.132
8.096
8.14
8.144
8.152
8.148
8.12
8.176
8.152
8.12
8.092
8.12
8.148
8.116
8.132
8.172
8.148
8.12
8.148
8.116
8.124
8.132
8.168
8.172
8.148
8.144
8.164
8.168
8.172
8.188
8.148
8.16
8.172
8.156
8.136
8.12
8.148
8.136
8.128
8.128
8.16
8.156
8.132
8.124
8.172
8.184
8.148
8.144
8.18
8.22
8.184
8.164
8.14
8.188
8.156
8.172
8.2
8.216
8.2
8.192
8.236
8.248
8.244
8.2
8.208
8.264
8.284
8.244
8.252
8.236
8.28
8.284
8.328
8.32
8.36
8.372
8.356
8.404
8.436
8.404
8.404
8.4
8.476
8.468
8.416
8.412
8.416
8.384
8.324
8.296
8.208
8.192
8.176
8.188
8.168
8.14
8.124
8.116
8.144
8.16
8.108
8.124
8.116
8.148
8.096
8.02
7.968
7.992
7.976
8.476
9.324
10.464
11.46
11.448
10.744
10.18
9.704
9.056
8.544
8.324
8.336
8.348
8.328
8.312
8.292
8.232
8.208
8.18
8.204
8.164
8.16
8.172
8.188
8.172
8.152
8.164
8.196
8.192
8.152
8.164
8.184
8.176
8.152
8.204
8.188
8.172
8.164
8.2
8.2
8.184
8.196
8.176
8.208
8.236
8.184
8.216
8.228
8.292
8.276
8.28
8.268
8.3
8.28
8.288
8.312
8.308
8.316
8.32
8.348
8.368
8.404
8.384
8.404
8.42
8.448
8.456
8.448
8.468
8.52
8.5
8.544
8.584
8.64
8.628
8.636
8.68
8.74
8.732
8.76
8.76
8.804
8.784
8.732
8.708
8.66
8.656
8.576
8.536
8.48
8.444
8.396
8.392
8.38
8.38
8.296
8.252
8.232
8.272
8.232
8.216
8.2
8.236
8.22
8.196
8.204
8.236
8.216
8.196
8.236
8.244
8.24
8.232
8.244
8.256
8.28
8.26
8.24
8.24
8.284
8.26
8.256
8.24
8.26
8.252
8.248
8.244
8.276
8.244
8.196
8.232
8.272
8.248
8.244
8.252
8.236
8.244
8.232
8.236
8.208
8.204
8.188
8.188
8.176
8.208
8.196
8.192
8.192
8.2
8.168
8.164
8.148
8.188
8.16
8.156
8.148
8.176
8.172
8.192
8.196
8.18
8.172
8.136
8.164
8.172
8.16
8.172
8.152
8.132
8.176
8.108
8.092
8.132
8.168
8.128
8.104
8.132
8.156
8.112
8.132
8.12
8.132
8.132
8.14
8.128
8.136
8.128
8.124
8.12
8.12
8.136
8.112
8.108
8.1
8.168
8.132
8.144
8.108
8.112
8.064
8.1
8.092
8.116
8.132
8.076
8.096
8.12
8.108
8.1
8.164
8.172
8.212
8.228
8.256
8.284
8.328
8.308
8.32
8.312
8.376
8.316
8.34
8.308
8.336
8.288
8.264
8.22
8.16
8.148
8.144
8.148
8.128
8.088
8.088
8.068
8.096
8.06
8.06
8.072
8.108
8.072
8.048
7.98
7.944
7.972
7.96
8.448
9.276
10.352
11.308
11.232
10.504
9.992
9.536
8.972
8.508
8.26
8.228
8.228
8.268
8.244
8.176
8.136
8.128
8.112
8.144
8.092
8.104
8.088
8.108
8.088
8.112
8.088
8.104
8.072
8.088
8.128
8.14
8.096
8.14
8.12
8.1
8.084
8.108
8.116
8.112
8.152
8.156
8.168
8.168
8.172
8.176
8.184
8.184
8.208
8.208
8.192
8.2
8.24
8.212
8.216
8.252
8.272
8.256
8.28
8.284
8.296
8.308
8.36
8.412
8.428
8.388
8.424
8.464
8.5
8.504
8.46
8.536
8.568
8.62
8.552
8.604
8.652
8.664
8.628
8.692
8.736
8.708
8.636
8.608
8.616
8.604
8.516
8.436
8.488
8.468
8.364
8.272
8.312
8.28
8.276
8.172
8.216
8.2
8.2
8.112
8.132
8.188
8.18
8.128
8.108
8.152
8.172
8.108
8.084
8.164
8.156
8.144
8.132
8.176
8.156
8.132
8.112
8.172
8.172
8.144
8.092
8.136
8.168
8.188
8.112
8.116
8.148
8.164
8.104
8.112
8.132
8.128
8.1
8.088
8.152
8.144
8.12
8.1
8.164
8.168
8.1
8.068
8.092
8.128
8.112
8.052
8.08
8.064
8.08
8.06
8.08
8.1
8.104
8.048
8.056
8.096
8.096
8.052
8.072
8.1
8.12
8.092
8.092
8.116
8.12
8.124
8.092
8.116
8.108
8.112
8.12
8.108
8.156
8.14
8.108
8.096
8.136
8.16
8.104
8.08
8.148
8.132
8.128
8.124
8.152
8.156
8.112
8.132
8.16
8.164
8.132
8.108
8.132
8.18
8.152
8.124
8.136
8.164
8.164
8.136
8.14
8.168
8.176
8.128
8.136
8.144
8.184
8.132
8.14
8.16
8.196
8.148
8.176
8.212
8.264
8.268
8.26
8.304
8.344
8.364
8.332
8.356
8.368
8.364
8.364
8.332
8.34
8.324
8.28
8.252
8.232
8.156
8.116
8.112
8.156
8.152
8.132
8.12
8.148
8.14
8.12
8.072
8.128
8.148
8.12
8.06
8.024
8.004
7.964
8.024
8.592
9.52
10.524
11.36
10.988
10.372
9.984
9.492
8.972
8.54
8.32
8.268
8.248
8.288
8.248
8.204
8.14
8.152
8.176
8.144
8.1
8.092
8.148
8.152
8.116
8.1
8.116
8.136
8.092
8.116
8.148
8.14
8.104
8.06
8.12
8.124
8.116
8.092
8.136
8.152
8.12
8.108
8.156
8.164
8.148
8.14
8.148
8.152
8.168
8.148
8.164
8.224
8.204
8.148
8.18
8.22
8.252
8.2
8.236
8.292
8.316
8.284
8.272
8.34
8.392
8.372
8.388
8.396
8.46
8.46
8.46
8.516
8.576
8.568
8.536
8.552
8.62
8.656
8.616
8.648
8.668
8.64
8.612
8.576
8.608
8.6
8.516
8.476
8.432
8.404
8.36
8.284
8.292
8.272
8.248
8.2
8.156
8.188
8.148
8.124
8.088
8.148
8.148
8.072
8.104
8.172
8.164
8.124
8.1
8.156
8.164
8.136
8.1
8.124
8.176
8.172
8.124
8.172
8.168
8.176
8.132
8.14
8.2
8.2
8.132
8.128
8.192
8.204
8.132
8.14
8.188
8.172
8.148
8.156
8.168
8.2
8.172
8.152
8.188
8.164
8.168
8.124
8.128
8.188
8.176
8.156
8.124
8.156
8.156
8.1
8.108
8.128
8.164
8.136
8.128
8.144
8.14
8.108
8.124
8.172
8.188
8.144
8.14
8.156
8.184
8.156
8.124
8.156
8.2
8.2
8.176
8.156
8.172
8.18
8.148
8.18
8.228
8.196
8.148
8.144
8.192
8.2
8.16
8.132
8.156
8.176
8.136
8.096
8.148
8.168
8.128
8.128
8.128
8.156
8.124
8.104
8.12
8.18
8.128
8.104
8.084
8.156
8.152
8.12
8.128
8.18
8.176
8.132
8.168
8.228
8.24
8.224
8.224
8.28
8.34
8.348
8.308
8.328
8.356
8.368
8.312
8.328
8.388
8.328
8.292
8.28
8.26
8.212
8.144
8.164
8.176
8.152
8.088
8.064
8.132
8.132
8.12
8.076
8.084
8.112
8.084
8.068
8.024
8.008
7.96
7.868
8.276
9.072
10.032
10.988
11.332
10.732
10.18
9.768
9.22
8.792
8.396
8.248
8.248
8.28
8.304
8.24
8.164
8.176
8.192
8.152
8.104
8.14
8.188
8.144
8.124
8.116
8.172
8.148
8.108
8.112
8.168
8.172
8.124
8.104
8.168
8.188
8.148
8.148
8.18
8.184
8.164
8.128
8.164
8.24
8.196
8.152
8.172
8.228
8.188
8.172
8.168
8.22
8.24
8.216
8.212
8.28
8.304
8.264
8.284
8.348
8.364
8.312
8.328
8.392
8.424
8.404
8.408
8.448
8.532
8.532
8.512
8.552
8.62
8.6
8.596
8.652
8.716
8.708
8.656
8.7
8.776
8.764
8.64
8.644
8.68
8.672
8.572
8.516
8.496
8.48
8.412
8.332
8.344
8.336
8.232
8.168
8.144
8.244
8.18
8.12
8.132
8.176
8.156
8.076
8.1
8.132
8.156
8.104
8.092
8.168
8.172
8.136
8.088
8.164
8.18
8.164
8.16
8.184
8.188
8.128
8.084
8.124
8.184
8.176
8.112
8.12
8.188
8.156
8.132
8.156
8.2
8.156
8.092
8.112
8.16
8.16
8.104
8.088
8.144
8.168
8.12
8.088
8.148
8.172
8.124
8.12
8.104
8.132
8.128
8.108
8.096
8.144
8.132
8.068
8.088
8.148
8.164
8.1
8.084
8.128
8.152
8.132
8.068
8.104
8.128
8.06
8.064
8.12
8.148
8.116
8.068
8.084
8.156
8.128
8.068
8.06
8.116
8.12
8.048
8.044
8.12
8.12
8.068
8.044
8.12
8.128
8.052
8.028
8.092
8.14
8.104
8.056
8.092
8.16
8.104
8.068
8.088
8.128
8.096
8.06
8.064
8.14
8.1
8.036
8.072
8.16
8.212
8.16
8.156
8.252
8.296
8.256
8.272
8.308
8.38
8.316
8.3
8.336
8.36
8.308
8.24
8.308
8.312
8.232
8.124
8.1
8.16
8.124
8.052
8.04
8.132
8.12
8.056
8.036
8.112
8.14
8.084
8.064
8.104
8.076
7.976
7.932
7.92
8.356
9.032
10
11.04
11.46
10.784
10.18
9.772
9.248
8.756
8.316
8.22
8.3
8.292
8.236
8.204
8.236
8.216
8.108
8.084
8.172
8.192
8.104
8.048
8.112
8.148
8.1
8.084
8.084
8.148
8.108
8.052
8.116
8.152
8.152
8.092
8.1
8.168
8.18
8.1
8.104
8.164
8.2
8.148
8.12
8.164
8.24
8.164
8.156
8.2
8.236
8.176
8.148
8.208
8.26
8.252
8.2
8.228
8.304
8.296
8.26
8.276
8.348
8.372
8.356
8.372
8.424
8.5
8.46
8.432
8.528
8.6
8.556
8.532
8.608
8.68
8.696
8.648
8.696
8.784
8.78
8.7
8.712
8.752
8.7
8.608
8.588
8.58
8.56
8.46
8.396
8.416
8.408
8.308
8.248
8.252
8.296
8.212
8.156
8.156
8.232
8.176
8.132
8.192
8.212
8.164
8.128
8.136
8.196
8.16
8.12
8.136
8.196
8.216
8.136
8.12
8.168
8.2
8.16
8.104
8.164
8.216
8.148
8.136
8.136
8.192
8.156
8.08
8.144
8.212
8.18
8.096
8.108
8.196
8.164
8.116
8.088
8.16
8.164
8.088
8.088
8.156
8.156
8.104
8.052
8.1
8.164
8.084
8.048
8.084
8.128
8.092
8.044
8.028
8.136
8.104
8.04
8.088
8.156
8.128
8.048
8.068
8.132
8.124
8.044
8.064
8.128
8.156
8.072
8.068
8.08
8.096
8.048
8.016
8.072
8.108
8.076
8.02
8.052
8.144
8.116
8.036
8.04
8.12
8.108
8.064
8.056
8.12
8.088
8.06
8.044
8.104
8.108
8.048
8.036
8.06
8.1
8.024
8.028
8.064
8.16
8.128
8.072
8.124
8.204
8.22
8.168
8.212
8.3
8.284
8.232
8.248
8.3
8.296
8.244
8.204
8.272
8.28
8.192
8.076
8.096
8.132
8.06
7.972
8.016
8.088
8.048
7.992
7.984
8.076
8.02
7.964
8.024
8.08
8.004
7.864
7.872
7.872
8.012
8.504
9.344
10.352
11.124
10.7
10.048
9.784
9.448
8.844
8.388
8.212
8.232
8.188
8.124
8.168
8.18
8.124
8.032
8.016
8.092
8.056
7.98
7.988
8.036
8.06
8.016
8.024
8.068
8.076
8.008
7.98
8.06
8.1
8.044
7.996
8.02
8.124
8.016
7.988
8.016
8.104
8.072
8.004
8.016
8.1
8.076
7.996
8.004
8.084
8.14
8.076
8.048
8.108
8.168
8.084
8.06
8.116
8.188
8.144
8.112
8.188
8.232
8.216
8.188
8.232
8.332
8.312
8.276
8.312
8.424
8.416
8.388
8.376
8.492
8.532
8.484
8.468
8.544
8.588
8.54
8.524
8.58
8.584
8.5
8.452
8.464
8.44
8.3
8.236
8.248
8.292
8.216
8.088
8.1
8.144
8.116
8.004
7.98
8.008
8.056
7.976
7.944
8.036
8.044
7.98
7.924
7.988
8.032
7.968
7.94
7.996
8.044
7.992
7.952
7.98
8.028
8.02
7.968
7.98
8.02
7.984
7.972
7.972
8.028
8.008
7.932
7.904
7.96
8.06
7.964
7.952
7.968
8.008
7.948
7.896
7.956
8.048
7.976
7.912
7.94
7.992
7.964
7.86
7.888
8
7.964
7.9
7.868
7.94
8.004
7.928
7.868
7.952
7.988
7.9
7.86
7.92
7.98
7.908
7.84
7.892
7.968
7.9
7.868
7.888
7.964
7.932
7.836
7.872
7.944
7.94
7.86
7.86
7.92
7.952
7.876
7.836
7.912
7.936
7.876
7.844
7.892
7.944
7.868
7.804
7.876
7.956
7.912
7.844
7.872
7.956
7.904
7.872
7.868
7.916
7.928
7.84
7.82
7.916
7.92
7.848
7.84
7.936
8.012
7.94
7.928
8.032
8.136
8.076
8.008
8.04
8.12
8.116
8.048
8.092
8.156
8.1
8.02
8.032
8.048
7.968
7.88
7.836
7.888
7.888
7.82
7.82
7.848
7.904
7.848
7.804
7.856
7.92
7.836
7.78
7.748
7.784
7.704
7.62
8.088
8.936
9.9
10.812
10.992
10.38
9.848
9.456
8.876
8.492
8.16
7.972
7.952
8.028
8.112
7.98
7.88
7.936
7.96
7.92
7.82
7.868
7.952
7.904
7.836
7.868
7.952
7.928
7.86
7.888
7.912
7.908
7.86
7.836
7.928
7.98
7.888
7.868
7.912
7.988
7.9
7.864
7.9
7.98
7.952
7.88
7.94
8.016
7.984
7.916
7.944
8.008
8.02
7.944
7.936
8.024
8.048
8.004
8.008
8.1
8.148
8.076
8.044
8.088
8.176
8.12
8.104
8.204
8.292
8.292
8.236
8.288
8.376
8.372
8.312
8.348
8.42
8.468
8.428
8.452
8.536
8.532
8.428
8.416
8.452
8.42
8.32
8.224
8.26
8.288
8.192
8.076
8.092
8.132
8.068
7.976
7.988
8.032
7.98
7.908
7.936
8.008
7.968
7.892
7.892
7.956
7.976
7.9
7.872
7.94
7.98
7.88
7.852
7.908
8.008
7.964
7.892
7.936
7.984
7.948
7.872
7.9
7.996
7.944
7.884
7.908
7.976
7.972
7.888
7.9
7.956
7.956
7.908
7.876
7.932
7.964
7.884
7.88
7.92
7.992
7.912
7.868
7.916
7.988
7.916
7.86
7.896
7.98
7.944
7.872
7.888
7.92
7.948
7.868
7.864
7.924
7.96
7.888
7.852
7.912
7.956
7.896
7.84
7.888
7.988
7.936
7.828
7.868
7.956
7.904
7.872
7.896
7.936
7.916
7.84
7.86
7.948
7.948
7.896
7.86
7.952
7.968
7.884
7.86
7.932
7.98
7.928
7.88
7.92
8.004
7.916
7.888
7.944
8.004
7.928
7.88
7.904
7.976
7.952
7.856
7.872
7.956
7.952
7.944
7.94
8.024
8.06
8.024
8.028
8.052
8.128
8.116
8.076
8.156
8.172
8.148
8.108
8.124
8.224
8.12
8.076
8.096
8.12
8.012
7.916
7.944
7.992
7.972
7.912
7.924
7.976
7.972
7.888
7.864
7.916
7.988
7.904
7.844
7.844
7.852
7.796
7.704
8.132
8.94
9.896
10.832
11.112
10.476
9.944
9.552
9.04
8.6
8.248
8.04
8.056
8.124
8.164
8.064
8.004
8
8.012
7.952
7.908
7.936
8.004
7.948
7.924
7.98
8.044
7.992
7.9
7.92
8.008
7.98
7.932
7.956
8.012
8
7.968
7.932
7.96
8.024
7.956
7.928
7.988
8.036
7.996
7.932
8.016
8.08
7.984
7.952
8
8.092
8.088
8.008
8.012
8.064
8.024
8.004
8.068
8.176
8.172
8.148
8.108
8.184
8.22
8.164
8.164
8.236
8.336
8.3
8.264
8.296
8.412
8.388
8.372
8.384
8.452
8.444
8.444
8.484
8.552
8.524
8.436
8.396
8.424
8.412
8.324
8.256
8.26
8.264
8.148
8.096
8.092
8.1
8.02
7.976
7.976
8.02
7.972
7.9
7.96
7.984
7.924
7.852
7.876
7.98
7.952
7.88
7.868
7.92
7.92
7.896
7.916
7.936
7.972
7.88
7.864
7.896
7.944
7.884
7.82
7.88
7.924
7.884
7.828
7.856
7.924
7.896
7.836
7.88
7.912
7.908
7.82
7.82
7.9
7.88
7.824
7.804
7.864
7.908
7.828
7.796
7.816
7.888
7.852
7.78
7.816
7.88
7.82
7.8
7.812
7.9
7.836
7.816
7.836
7.872
7.84
7.796
7.804
7.872
7.888
7.824
7.812
7.876
7.912
7.828
7.816
7.848
7.88
7.832
7.784
7.86
7.904
7.852
7.804
7.82
7.9
7.864
7.808
7.824
7.892
7.892
7.832
7.84
7.892
7.868
7.856
7.82
7.864
7.9
7.848
7.824
7.856
7.936
7.868
7.804
7.868
7.904
7.86
7.812
7.88
7.96
7.948
7.92
7.948
8.012
8
8
8.012
8.112
8.116
8.08
8.076
8.16
8.184
8.084
8.036
8.068
8.112
8.04
7.92
7.92
7.952
7.932
7.868
7.876
7.948
7.892
7.836
7.848
7.928
7.876
7.856
7.84
7.884
7.896
7.744
7.74
7.708
8.092
8.776
9.748
10.788
11.212
10.548
9.988
9.672
9.184
8.616
8.172
8.048
8.128
8.108
8.012
7.992
8.004
7.988
7.924
7.92
7.94
7.952
7.912
7.9
7.944
7.956
7.916
7.86
7.924
7.964
7.908
7.876
7.908
7.968
7.912
7.88
7.912
7.944
7.9
7.892
7.932
7.98
7.972
7.932
7.94
8.004
8.028
7.976
7.936
8.024
8.076
8.012
8.004
8.02
8.068
8.044
8.02
8.052
8.144
8.1
8.068
8.132
8.196
8.18
8.148
8.188
8.256
8.284
8.264
8.288
8.348
8.388
8.356
8.356
8.456
8.508
8.468
8.464
8.552
8.56
8.548
8.488
8.532
8.584
8.52
8.424
8.388
8.42
8.364
8.28
8.228
8.228
8.204
8.112
8.084
8.108
8.092
8.028
8
8.02
8.052
7.968
7.96
8.008
8.06
8.012
7.924
7.996
8.044
7.988
7.904
7.976
8.004
7.996
7.972
7.952
8.024
8.02
7.956
7.928
8.016
8.04
7.956
7.94
7.96
8.04
8
7.94
7.996
8.032
7.964
7.932
7.948
8.032
7.972
7.94
7.98
8.016
7.976
7.888
7.916
7.976
7.988
7.92
7.908
7.98
7.98
7.928
7.928
7.976
8.016
7.94
7.912
7.992
8.008
7.916
7.888
7.936
7.972
7.996
7.924
7.944
7.984
7.972
7.92
7.936
8.012
7.984
7.936
7.932
7.992
8.012
7.932
7.896
7.968
8.024
7.952
7.912
7.944
8
7.964
7.932
7.964
8.028
7.968
7.928
7.96
8.008
7.96
7.924
7.936
7.988
8.008
7.92
7.932
8.024
8.044
7.976
7.936
7.992
8.028
7.976
7.96
8.056
8.104
8.056
8.048
8.128
8.16
8.144
8.152
8.188
8.236
8.204
8.172
8.176
8.236
8.244
8.112
8.136
8.176
8.104
7.996
7.956
8.016
8.016
7.956
7.888
7.96
8.004
7.96
7.888
7.932
8.008
7.984
7.916
7.936
7.924
7.852
7.756
7.824
8.38
9.232
10.192
11.072
10.916
10.304
9.812
9.372
8.932
8.464
8.172
8.044
8.14
8.208
8.104
8.028
8.036
8.072
7.996
7.952
8.02
8.028
7.98
7.944
7.96
8.044
8.036
7.96
7.944
8.008
8.048
7.96
7.968
8.012
8.068
8.004
7.98
8.028
8.1
8.008
7.988
8.044
8.096
8.068
7.984
8.052
8.132
8.088
8.052
8.056
8.136
8.108
8.092
8.116
8.192
8.216
8.132
8.14
8.192
8.26
8.184
8.208
8.272
8.364
8.256
8.268
8.34
8.416
8.392
8.388
8.444
8.524
8.512
8.464
8.532
8.592
8.6
8.576
8.596
8.68
8.7
8.592
8.6
8.608
8.616
8.528
8.456
8.46
8.448
8.324
8.276
8.276
8.28
8.196
8.136
8.132
8.156
8.12
8.028
8.056
8.112
8.084
8.008
8.024
8.072
8.092
8.012
8.012
8.072
8.08
8.012
8.012
8.056
8.108
8.016
8.016
8.04
8.108
8.044
7.988
8.024
8.056
8.06
7.996
8.02
8.088
8.048
8.004
8.008
8.08
8.064
7.976
7.996
8.06
8.072
7.988
7.972
8.008
8.064
7.952
7.944
7.992
8.056
7.996
7.968
7.98
8.016
8.024
7.948
7.996
8.048
8.044
7.944
7.964
8.044
8.06
7.964
7.952
8.02
8.04
7.964
7.952
8
8.068
7.984
7.964
8.008
8.072
8.012
7.952
7.98
8.06
8.004
7.968
7.98
8.036
8.04
7.968
7.968
8.036
8.064
7.972
7.992
8.048
8.08
7.972
7.996
8.032
8.096
8.008
7.964
8.036
8.084
8.016
7.968
7.992
8.084
8.036
7.976
7.992
8.056
8.044
7.984
8.052
8.128
8.132
8.072
8.12
8.18
8.28
8.212
8.176
8.24
8.288
8.236
8.22
8.236
8.264
8.188
8.152
8.172
8.192
8.08
7.972
8.02
8.092
8.084
7.98
7.972
8.048
8.064
7.984
7.972
8.048
8.052
7.988
7.944
7.952
7.932
7.808
7.808
8.38
9.24
10.208
10.968
10.8
10.22
9.836
9.356
8.88
8.444
8.244
8.128
8.16
8.22
8.216
8.06
8.096
8.104
8.1
8.004
8.012
8.048
8.116
8.028
7.988
8.048
8.108
8.06
8.004
8.06
8.116
8.064
8.024
8.048
8.124
8.112
7.996
8.04
8.1
8.156
8.048
8.068
8.104
8.156
8.088
8.06
8.132
8.192
8.116
8.096
8.144
8.2
8.164
8.112
8.168
8.252
8.208
8.148
8.16
8.296
8.312
8.24
8.26
8.348
8.392
8.312
8.368
8.436
8.496
8.416
8.46
8.504
8.584
8.54
8.52
8.628
8.692
8.684
8.636
8.66
8.732
8.72
8.6
8.64
8.664
8.64
8.496
8.48
8.496
8.468
8.308
8.3
8.336
8.332
8.22
8.18
8.2
8.24
8.152
8.104
8.156
8.18
8.148
8.076
8.14
8.156
8.128
8.056
8.112
8.172
8.164
8.04
8.084
8.14
8.18
8.076
8.044
8.124
8.156
8.06
8.052
8.128
8.152
8.08
8.072
8.12
8.132
8.096
8.028
8.08
8.14
8.12
8.036
8.052
8.112
8.14
8.036
8.052
8.084
8.128
8.04
8.028
8.092
8.112
8.02
7.988
8.056
8.124
8.044
7.996
8.072
8.132
8.088
8.016
8.052
8.116
8.1
8.004
8.06
8.112
8.124
7.996
8.068
8.116
8.108
8.012
8.032
8.1
8.132
8.036
8.02
8.068
8.132
8.064
8.012
8.084
8.088
8.084
8.004
8.064
8.096
8.068
7.976
8.032
8.116
8.112
7.968
8.012
8.084
8.1
8.024
8.024
8.08
8.104
8.028
7.996
8.064
8.1
8.036
7.988
8.076
8.144
8.14
8.06
8.108
8.208
8.232
8.172
8.232
8.296
8.304
8.188
8.24
8.292
8.3
8.208
8.192
8.228
8.244
8.116
8.044
8.1
8.136
8.056
7.972
8.04
8.08
8.064
7.988
8.016
8.1
8.044
7.96
8.048
8.06
7.996
7.856
7.824
7.944
8.468
9.164
10.056
10.896
10.712
10.04
9.704
9.48
8.984
8.46
8.16
8.156
8.24
8.184
8.1
8.116
8.128
8.108
7.976
8.024
8.088
8.076
8.004
7.988
8.072
8.08
8
8.012
8.048
8.088
8.024
7.976
8.064
8.084
8.04
7.968
8.052
8.1
8.072
7.98
8.052
8.112
8.08
7.992
8.056
8.136
8.144
8.032
8.076
8.136
8.136
8.024
8.076
8.176
8.192
8.136
8.096
8.18
8.244
8.192
8.148
8.236
8.284
8.3
8.236
8.296
8.376
8.372
8.324
8.396
8.496
8.508
8.444
8.464
8.576
8.596
8.54
8.548
8.64
8.68
8.64
8.596
8.632
8.644
8.564
8.452
8.492
8.488
8.448
8.308
8.336
8.328
8.304
8.148
8.176
8.216
8.196
8.092
8.084
8.148
8.152
8.084
8.048
8.128
8.116
8.036
7.984
8.064
8.14
8.084
7.984
8.084
8.116
8.116
8.008
8.052
8.104
8.092
7.996
8.024
8.1
8.132
8.012
8.032
8.1
8.104
8.016
7.984
8.076
8.1
8.048
7.96
8.048
8.104
8.048
7.952
8.044
8.088
8.044
7.984
8.02
8.096
8.088
7.964
8.028
8.092
8.108
7.996
8
8.088
8.108
8.012
7.968
8.068
8.08
8.048
7.996
8.084
8.112
8.024
7.988
8.052
8.088
8.1
7.984
8.04
8.12
8.112
7.976
8.012
8.084
8.096
8.02
8.012
8.068
8.096
8.016
7.964
8.068
8.076
8.004
7.956
8.032
8.072
8.036
7.94
8.016
8.036
8.068
7.96
7.996
8.064
8.06
7.956
7.988
8.06
8.056
7.956
7.944
8.048
8.044
7.96
7.928
8.056
8.116
8.064
8.004
8.132
8.152
8.172
8.108
8.192
8.268
8.208
8.14
8.188
8.3
8.244
8.14
8.132
8.212
8.16
8.02
7.956
8.052
8.096
8
7.936
8.016
8.052
7.972
7.896
7.976
8.04
7.976
7.924
7.964
8.036
7.932
7.8
7.776
7.88
8.392
9.088
9.956
10.836
10.596
9.972
9.676
9.432
8.948
8.44
8.144
8.176
8.2
8.136
8.052
8.076
8.096
8.04
7.932
7.972
8.028
8.036
7.932
7.944
8.044
8.02
7.932
7.928
8.044
8.004
7.928
7.916
8.032
8.048
7.972
7.912
8.016
8.06
8
7.928
8.028
8.032
8.008
7.952
8.012
8.076
8.04
7.952
7.956
8.096
8.044
7.984
7.992
8.096
8.092
8.02
7.996
8.096
8.128
8.092
8.04
8.18
8.204
8.168
8.128
8.228
8.304
8.296
8.244
8.316
8.4
8.412
8.312
8.388
8.508
8.52
8.44
8.432
8.584
8.576
8.512
8.472
8.584
8.552
8.456
8.38
8.444
8.42
8.336
8.216
8.272
8.288
8.208
8.104
8.112
8.148
8.096
8.004
8.012
8.092
8.08
7.948
7.972
8.064
8.052
7.984
7.944
8.028
8.048
8.004
7.948
8.028
8.048
7.992
7.94
7.972
8.036
8.016
7.94
7.976
8.032
8
7.932
7.94
8.036
8.04
7.924
7.912
8.032
8.02
7.916
7.928
8.02
8
7.988
7.912
8.012
8.016
7.984
7.908
7.956
8.016
7.976
7.892
7.92
8.012
8
7.924
7.928
8.044
8.008
7.952
7.904
8.016
8.036
7.948
7.948
8.028
8.032
7.972
7.936
8.008
8.052
8.008
7.92
7.96
8.056
7.988
7.928
7.952
8.024
8.024
7.932
7.916
8.032
8.032
7.92
7.916
8.044
8.02
7.936
7.896
7.984
7.996
7.956
7.908
7.968
8.024
7.968
7.908
7.912
7.988
7.96
7.896
7.92
8.004
7.98
7.88
7.904
8
8
7.864
7.876
7.988
7.964
7.912
7.884
8.008
8.052
7.984
7.968
8.076
8.116
8.088
8.056
8.128
8.22
8.164
8.084
8.116
8.22
8.212
8.092
8.064
8.188
8.116
7.988
7.936
8.024
8.012
7.936
7.912
7.98
8.008
7.932
7.888
7.952
7.96
7.948
7.868
7.908
7.968
7.852
7.752
7.708
7.892
8.368
9.072
9.984
10.876
10.56
9.916
9.604
9.376
8.908
8.38
8.12
8.144
8.168
8.116
8.02
8.036
8.052
7.98
7.912
7.944
8.028
7.98
7.88
7.908
8.004
7.984
7.884
7.88
7.988
7.988
7.928
7.904
7.98
7.98
7.92
7.912
7.964
8.02
7.964
7.928
7.98
8.008
7.996
7.924
7.936
8.052
8
7.932
7.968
8.048
8.048
7.984
8.012
8.088
8.06
7.972
8.016
8.132
8.096
8.076
8.064
8.148
8.2
8.128
8.112
8.212
8.264
8.24
8.196
8.232
8.348
8.332
8.28
8.316
8.452
8.44
8.38
8.42
8.516
8.512
8.44
8.428
8.5
8.5
8.396
8.344
8.384
8.368
8.288
8.208
8.192
8.232
8.16
8.076
8.068
8.128
8.048
7.94
7.976
8.028
8.016
7.92
7.92
8.016
8
7.912
7.928
8.004
7.988
7.96
7.936
7.976
8.016
7.932
7.92
7.96
8.012
7.976
7.888
7.916
8.012
8
7.904
7.92
8.016
7.972
7.924
7.94
8.028
7.992
7.896
7.944
8
8
7.924
7.9
7.972
8.02
7.96
7.912
7.944
8.012
7.984
7.896
7.928
7.996
7.98
7.88
7.932
8.036
7.976
7.912
7.928
7.992
7.992
7.92
7.912
7.98
7.992
7.964
7.936
7.992
8.032
7.984
7.912
7.968
8.012
7.988
7.896
7.932
8.04
7.984
7.936
7.952
8.032
8.02
7.936
7.936
8.032
7.992
7.96
7.94
8.06
8.052
7.988
7.948
8.052
8.076
8.024
7.96
7.98
8.072
8.036
7.964
8
8.052
8.036
7.988
7.98
8.092
8.056
7.988
7.988
8.076
8.064
8.02
8.024
8.116
8.18
8.12
8.1
8.204
8.252
8.208
8.136
8.208
8.236
8.212
8.168
8.144
8.164
8.152
8.048
7.992
8.044
8.024
7.944
7.936
8.004
7.992
7.904
7.92
7.976
7.968
7.94
7.904
7.944
7.976
7.888
7.772
7.8
7.76
7.868
8.38
9.28
10.228
10.932
10.408
9.888
9.684
9.248
8.688
8.264
8.176
8.096
8.052
8.044
8.108
8.028
7.988
7.912
8.012
8.024
7.98
7.928
7.968
8.04
7.996
7.936
7.968
8.04
7.98
7.912
7.948
8.044
8.016
7.924
7.948
8.04
8
7.94
7.964
8.032
8.056
7.992
7.976
8.036
8.06
8.036
7.984
8.04
8.072
8.052
7.996
8.044
8.12
8.092
7.988
8.076
8.168
8.132
8.064
8.072
8.18
8.18
8.164
8.172
8.244
8.264
8.28
8.244
8.332
8.356
8.344
8.328
8.4
8.476
8.468
8.432
8.456
8.596
8.576
8.5
8.524
8.592
8.544
8.468
8.444
8.496
8.432
8.34
8.312
8.324
8.252
8.216
8.148
8.16
8.204
8.128
8.052
8.128
8.164
8.076
7.996
8.028
8.092
8.048
7.968
8.004
8.068
8.048
7.984
8.012
8.108
8.064
8.032
7.988
8.072
8.088
8.068
8.004
8.044
8.06
8.032
7.968
8.064
8.076
8.036
7.972
8.012
8.088
8.044
7.96
7.984
8.08
8.056
8.004
7.992
8.06
8.02
7.98
7.98
8.056
8.056
8.016
7.992
8.032
8.052
8.04
7.94
8.024
8.044
8.012
7.924
7.972
8.056
8.02
7.948
7.968
8.04
7.988
7.916
7.944
7.984
8.004
7.928
7.932
8.012
8.028
7.976
7.912
7.972
8.024
7.984
7.904
7.968
8.016
7.964
7.904
7.944
7.988
7.984
7.92
7.916
8.012
7.964
7.892
7.916
7.976
7.964
7.936
7.896
7.972
7.98
7.96
7.92
7.964
8.008
7.944
7.916
7.952
8.048
7.976
7.924
7.988
8.072
8.044
8.016
8.056
8.164
8.18
8.148
8.132
8.156
8.196
8.132
8.136
8.148
8.156
8.116
8.108
8.016
8.052
7.964
7.884
7.896
7.98
7.964
7.88
7.868
7.908
7.936
7.852
7.864
7.892
7.924
7.864
7.792
7.756
7.8
7.656
7.92
8.616
9.572
10.36
10.724
10.192
9.784
9.552
9.052
8.58
8.236
8.14
8.048
8.06
8.064
8.092
7.944
7.916
7.88
7.976
7.9
7.864
7.848
7.992
7.936
7.872
7.844
7.932
7.924
7.868
7.824
7.9
7.968
7.86
7.852
7.888
7.972
7.876
7.848
7.848
7.984
7.916
7.868
7.844
7.984
7.984
7.9
7.86
7.992
7.98
7.936
7.872
7.964
8.008
7.904
7.928
7.972
8.052
8.008
7.96
7.992
8.124
8.064
8.028
8.048
8.2
8.176
8.172
8.128
8.248
8.24
8.22
8.196
8.324
8.356
8.292
8.272
8.372
8.46
8.396
8.38
8.4
8.48
8.388
8.32
8.256
8.364
8.26
8.192
8.132
8.2
8.068
8.04
7.956
8.056
8.008
7.92
7.848
7.924
7.968
7.884
7.836
7.884
7.94
7.888
7.832
7.836
7.944
7.868
7.856
7.84
7.952
7.888
7.832
7.828
7.96
7.904
7.872
7.82
7.976
7.932
7.908
7.852
7.916
7.924
7.896
7.852
7.9
7.952
7.864
7.836
7.864
7.956
7.884
7.888
7.84
7.932
7.892
7.872
7.812
7.928
7.888
7.876
7.84
7.936
7.884
7.852
7.812
7.904
7.908
7.844
7.784
7.872
7.952
7.868
7.832
7.824
7.916
7.844
7.852
7.82
7.94
7.904
7.876
7.828
7.924
7.88
7.86
7.804
7.936
7.948
7.888
7.84
7.892
7.924
7.896
7.864
7.892
7.932
7.904
7.88
7.84
7.932
7.864
7.872
7.844
7.94
7.9
7.94
7.844
7.936
7.856
7.872
7.836
7.936
7.904
7.9
7.888
7.972
7.992
7.968
7.98
8.02
8.068
8.024
8.092
8.084
8.108
8.056
8.112
8.108
8.14
8.08
8.068
8.044
8.084
8.004
7.936
7.96
7.98
7.916
7.852
7.856
7.896
7.864
7.816
7.856
7.888
7.888
7.832
7.868
7.904
7.812
7.704
7.708
7.648
7.836
8.46
9.384
10.308
10.964
10.44
9.876
9.564
9.112
8.6
8.208
8.068
8.036
8.024
8
8.044
7.988
7.952
7.852
7.904
7.876
7.86
7.8
7.828
7.868
7.876
7.832
7.868
7.864
7.88
7.832
7.856
7.864
7.88
7.868
7.876
7.956
7.912
7.876
7.844
7.896
7.892
7.876
7.856
7.9
7.928
7.928
7.888
7.932
7.932
7.956
7.932
7.936
7.956
7.972
7.932
7.984
8.016
8.04
8.032
8.032
8.088
8.068
8.104
8.104
8.18
8.18
8.204
8.18
8.232
8.24
8.26
8.252
8.352
8.364
8.392
8.372
8.424
8.432
8.448
8.408
8.408
8.424
8.408
8.368
8.34
8.344
8.272
8.2
8.148
8.172
8.1
8.044
8.008
8.004
7.988
7.976
7.892
7.908
7.896
7.904
7.884
7.884
7.924
7.9
7.888
7.88
7.892
7.88
7.876
7.852
7.888
7.932
7.888
7.86
7.928
7.924
7.916
7.888
7.92
7.944
7.912
7.896
7.964
7.952
7.944
7.896
7.92
7.924
7.936
7.92
7.904
7.956
7.956
7.948
7.9
7.952
7.952
7.944
7.892
7.964
7.956
7.952
7.928
7.948
7.948
7.944
7.868
7.92
7.924
7.92
7.904
7.928
7.924
7.94
7.908
7.908
7.94
7.936
7.916
7.912
7.972
7.956
7.944
7.884
7.948
7.92
7.916
7.9
7.956
7.948
7.964
7.944
7.968
7.932
7.96
7.944
7.924
7.948
7.94
7.936
7.952
7.964
7.956
7.94
7.948
8.012
7.964
7.956
7.924
7.996
7.992
7.98
7.964
7.98
8.004
7.964
7.928
7.964
7.984
7.968
7.936
7.94
7.972
7.992
7.988
7.984
8.02
8.024
8.032
8.016
8.112
8.068
8.136
8.156
8.208
8.188
8.168
8.164
8.216
8.192
8.2
8.104
8.144
8.136
8.116
8.032
7.984
8.016
7.98
7.98
7.968
8.02
7.972
7.948
7.928
7.992
7.944
7.932
7.9
7.968
7.928
7.86
7.788
7.772
7.856
8.448
9.276
10.284
11.088
10.72
10.112
9.744
9.344
8.84
8.384
8.164
8.164
8.136
8.108
8.044
8.072
8.032
7.992
7.964
8.02
8
7.952
7.94
7.98
7.96
7.972
7.944
7.976
7.976
7.992
7.956
7.98
7.936
7.992
7.96
7.98
8.008
7.988
7.992
7.984
7.992
8.02
7.992
8
8.028
8.016
7.996
8.004
8.04
8.036
8.048
8.044
8.06
8.068
8.12
8.1
8.116
8.14
8.172
8.152
8.14
8.18
8.196
8.228
8.24
8.296
8.304
8.316
8.296
8.352
8.38
8.404
8.408
8.428
8.468
8.496
8.5
8.54
8.536
8.54
8.504
8.492
8.5
8.476
8.408
8.388
8.372
8.364
8.3
8.2
8.22
8.148
8.12
8.06
8.096
8.064
8.044
8.024
8.048
8.02
7.988
7.968
7.988
8.016
8.008
8.004
7.98
8.016
8
7.988
7.964
8.012
8.016
7.992
7.956
8.024
8.004
8
7.98
8.028
8.044
8.032
8.008
8.04
8.02
8.024
8.012
8.028
8.032
8.028
8.044
8.028
8.052
8.052
8.048
7.972
8.052
8.008
8.024
7.988
8.068
8.044
8.032
7.996
8.032
8.012
8.012
8.008
8.04
8.016
8.004
8.028
8.004
8.036
8
7.984
7.956
8.048
8.024
8.008
7.98
8.036
7.996
8
7.948
8.016
7.984
7.996
7.984
8.06
8.024
8.012
7.972
8
8
7.992
7.976
8
8.048
8.064
8.048
8.004
8.004
8.012
8.024
7.964
8.048
8.024
8.032
8.016
8.028
8.024
8.016
7.988
8.032
8.04
8.016
8.008
8.032
8.028
8.04
8.04
8.008
8.02
7.992
8.012
7.972
8.032
8.008
8.008
8.036
8.1
8.116
8.092
8.112
8.136
8.14
8.192
8.196
8.22
8.204
8.216
8.232
8.236
8.24
8.188
8.132
8.168
8.164
8.084
8.036
8.004
8.024
8.024
8.02
7.98
8.016
7.972
8
7.968
7.988
7.988
7.984
7.948
7.988
7.896
7.852
7.804
7.86
8.384
9.16
10.092
10.972
10.816
10.208
9.796
9.44
8.944
8.512
8.216
8.152
8.184
8.172
8.136
8.084
8.092
8.052
8.028
8.016
8.036
8.032
8.016
8.02
8
7.996
8.016
8.012
8.044
8.052
8.008
8.012
8.036
8.06
8.032
8.016
8.012
8.06
8.056
8.064
8.036
8.06
8.04
8.048
8.06
8.112
8.064
8.072
8.068
8.096
8.092
8.088
8.088
8.096
8.172
8.152
8.168
8.16
8.192
8.2
8.192
8.216
8.252
8.204
8.26
8.284
8.332
8.312
8.332
8.372
8.452
8.404
8.432
8.476
8.476
8.528
8.508
8.556
8.556
8.576
8.572
8.568
8.58
8.532
8.464
8.452
8.404
8.412
8.316
8.3
8.228
8.236
8.184
8.16
8.136
8.132
8.072
8.08
8.072
8.08
8.052
8.036
8.064
8.064
8.052
8.028
8.052
8.036
8.052
8.028
8.052
8.02
8.072
8.04
8.048
8.064
8.084
8.024
8.016
8.04
8.056
8
8.052
8.076
8.092
8.064
8.048
8.056
8.052
8.04
8.044
8.068
8.072
8.068
8.016
8.052
8.052
8.096
8.016
8.024
8.056
8.088
8.04
8.024
8.008
8.052
8.012
8.032
8.032
8.04
8.028
7.992
8.028
8.044
8.016
8.004
8.016
8.044
8.06
8.008
8.02
8.024
8.044
8.016
8.02
8.044
8.064
8.004
8.032
8.016
8.064
8.02
7.988
8.04
8.064
8.024
8.036
8.028
8.072
8.08
8.036
8.052
8.06
8.064
8.032
8.06
8.02
8.084
8.012
8.024
8.032
8.084
8.036
8.032
8.064
8.092
8.048
8.032
8.064
8.088
8.064
8.044
8.06
8.04
8.064
8.028
8.056
8.064
8.068
8.06
8.068
8.08
8.108
8.02
8.048
8.04
8.08
8.028
8.032
8.088
8.148
8.12
8.12
8.184
8.2
8.212
8.232
8.276
8.292
8.252
8.264
8.272
8.296
8.272
8.192
8.204
8.212
8.228
8.076
8.06
8.068
8.064
8.004
8.028
8.056
8.036
7.98
7.968
8.036
8.052
7.988
7.98
8.024
8.016
7.948
7.892
7.84
7.996
8.576
9.356
10.348
11.064
10.7
10.028
9.728
9.388
8.88
8.396
8.212
8.208
8.236
8.192
8.144
8.112
8.108
8.092
8.076
8.08
8.068
8.08
8.016
8.056
8.06
8.092
8.036
8.036
8.092
8.112
8.036
8.064
8.088
8.084
8.04
8.064
8.068
8.1
8.072
8.092
8.116
8.112
8.092
8.08
8.1
8.124
8.128
8.072
8.1
8.136
8.18
8.12
8.148
8.152
8.18
8.136
8.196
8.204
8.22
8.208
8.232
8.26
8.304
8.292
8.268
8.348
8.38
8.404
8.356
8.432
8.456
8.48
8.472
8.508
8.512
8.572
8.528
8.56
8.624
8.632
8.572
8.58
8.592
8.576
8.504
8.456
8.448
8.428
8.348
8.316
8.304
8.268
8.236
8.176
8.192
8.12
8.132
8.08
8.072
8.1
8.076
8.016
8.032
8.052
8.096
8.04
8.008
8.076
8.076
8.008
8.024
8.068
8.096
8.032
8.032
8.072
8.104
8.072
8.052
8.08
8.084
8.08
8.056
8.072
8.088
8.112
8.056
8.056
8.084
8.096
7.996
8.056
8.084
8.112
8.008
8.048
8.048
8.092
8.048
8.032
8.064
8.056
8.068
8.036
8.052
8.044
8.056
8.02
8.052
8.072
8.052
7.98
8
8.02
8.068
7.992
8.016
8.036
8.056
8.016
8.016
8.056
8.084
8.06
8.032
8.08
8.072
8.048
8.004
8.052
8.084
8.048
8.024
8.016
8.052
8.036
8.004
8.032
8.056
8.076
8.028
8.028
8.08
8.056
8.012
8.04
8.084
8.072
8.052
8.02
8.084
8.064
8.064
8.012
8.052
8.024
8.088
8.024
8.032
8.048
8.048
8.008
8.032
8.032
8.076
7.984
8.016
8.056
8.072
7.988
8.004
8.032
8.076
8.02
7.992
8.052
8.048
8.036
8.04
8.08
8.124
8.172
8.12
8.156
8.232
8.256
8.184
8.216
8.272
8.304
8.204
8.204
8.252
8.212
8.164
8.168
8.152
8.072
8.004
7.996
8.048
8.032
8.008
7.976
8.004
8
8.032
7.956
7.988
8.004
8.04
7.94
7.908
7.884
7.872
7.756
8.104
8.856
9.716
10.596
10.952
10.436
9.932
9.632
9.156
8.736
8.392
8.176
8.128
8.168
8.2
8.156
8.056
8.044
8.072
8.064
7.984
8.004
8.068
8.056
7.944
7.98
8.048
8.024
8
7.996
8.028
8.064
8.012
7.992
8.132
8.044
8.032
8.004
8.032
8.112
8.036
7.952
8.004
8.056
8.064
7.98
8.016
8.068
8.076
7.864
8.04
8.136
8.12
8.068
8.088
8.136
8.152
8.12
8.12
8.256
8.224
8.188
8.144
8.204
8.276
8.252
8.224
8.3
8.332
8.356
8.332
8.348
8.428
8.444
8.472
8.416
8.512
8.524
8.448
8.508
8.532
8.54
8.488
8.436
8.484
8.46
8.416
8.32
8.316
8.164
8.244
8.156
8.168
8.116
8.12
8.036
7.976
8.048
8.036
7.944
7.936
7.996
8.004
7.96
7.932
8.004
8.024
7.972
7.94
8.016
8.016
7.992
7.928
7.984
8.028
8
7.94
7.984
8.052
8.04
7.944
7.976
8.02
8.012
7.964
7.96
8.044
8.036
7.988
7.984
8.024
8.048
7.988
7.948
8.012
8.024
7.96
7.932
7.972
7.984
8
7.936
7.968
7.984
7.984
7.912
7.96
7.988
7.984
7.908
7.94
8.016
8
7.924
7.884
7.968
7.964
7.92
7.88
7.936
7.972
7.928
7.916
7.928
7.968
7.96
7.88
7.944
8
7.94
7.888
7.936
8.004
7.992
7.928
7.908
7.988
7.96
7.944
7.888
7.96
7.96
7.92
7.884
7.964
7.952
7.896
7.872
7.9
7.972
7.956
7.896
7.936
8
7.972
7.896
7.908
7.972
7.972
7.916
7.92
8.02
8
7.916
7.932
7.976
7.984
7.924
7.928
7.992
8.012
7.972
7.892
7.96
7.992
8.012
7.976
8.008
8.104
8.1
8.036
8.108
8.204
8.188
8.116
8.132
8.236
8.216
8.144
8.116
8.168
8.192
8.14
8
8.004
8
7.984
7.872
7.96
8.012
7.996
7.884
7.936
8.004
7.988
7.88
7.932
7.968
7.98
7.864
7.8
7.848
7.8
8.156
8.876
9.864
10.828
11.044
10.352
9.96
9.684
9.14
8.624
8.296
8.212
8.196
8.088
8.132
8.124
8.052
8.004
8
8.06
8.044
7.964
7.996
8.056
8.028
7.984
7.972
8.044
8.028
7.992
7.948
8
8.048
8.028
7.956
8.028
8.076
8.052
7.98
8.032
8.076
8.06
7.98
8.012
8.12
8.108
8.028
8.016
8.112
8.132
8.092
8.044
8.144
8.16
8.132
8.068
8.152
8.188
8.18
8.128
8.224
8.26
8.26
8.208
8.268
8.336
8.348
8.296
8.348
8.4
8.436
8.404
8.448
8.536
8.544
8.496
8.508
8.6
8.62
8.572
8.552
8.612
8.632
8.572
8.46
8.488
8.52
8.448
8.344
8.328
8.364
8.268
8.172
8.176
8.224
8.176
8.076
8.044
8.144
8.128
8.072
8.032
8.116
8.128
8.072
7.992
8.056
8.112
8.084
8.028
8.076
8.116
8.08
8.008
8.04
8.116
8.076
8.012
8.04
8.14
8.128
8.076
8.048
8.112
8.128
8.056
8.028
8.092
8.12
8.084
8.048
8.084
8.156
8.108
8.012
8.072
8.116
8.1
8
8.052
8.104
8.084
8.02
8.016
8.08
8.096
8.056
8.04
8.1
8.092
8.04
7.992
8.052
8.108
8.008
7.984
8.028
8.088
8.096
8.012
8.056
8.12
8.088
7.968
8.032
8.064
8.064
7.988
7.984
8.092
8.076
8.008
7.98
8.048
