8.108
8.068
8.032
8.092
8.104
8.088
8.06
8.068
8.1
8.068
8.056
8.08
8.14
8.14
8.116
8.176
8.196
8.168
8.14
8.188
8.268
8.236
8.192
8.16
8.196
8.176
8.1
8.092
8.112
8.116
8.084
8.052
8.06
8.076
8.02
7.996
8.028
8.084
8.048
8.004
8.028
8.068
8.06
7.996
7.968
7.916
7.9
7.984
8.2
8.632
9.144
9.748
10.304
10.3
9.712
9.14
8.636
8.192
7.924
7.916
7.996
8.088
8.184
8.156
8.116
8.124
8.14
8.148
8.088
8.132
8.168
8.116
8.12
8.124
8.16
8.168
8.124
8.124
8.16
8.176
8.148
8.112
8.136
8.184
8.144
8.148
8.172
8.228
8.184
8.176
8.228
8.24
8.216
8.2
8.24
8.272
8.272
8.24
8.256
8.32
8.308
8.312
8.304
8.368
8.392
8.396
8.368
8.432
8.48
8.488
8.5
8.528
8.604
8.62
8.596
8.68
8.748
8.784
8.784
8.8
8.9
8.928
8.944
8.964
9.012
9.056
9.048
9.052
9.1
9.12
9.064
9.024
9.008
8.98
8.872
8.788
8.752
8.712
8.584
8.488
8.452
8.432
8.36
8.284
8.232
8.24
8.212
8.168
8.144
8.14
8.14
8.088
8.08
8.132
8.14
8.096
8.028
8.08
8.096
8.1
8.044
8.064
8.14
8.096
8.064
8.072
8.112
8.092
8.064
8.068
8.08
8.096
8.056
8.068
8.072
8.1
8.048
8.028
8.068
8.104
8.064
8.028
8.052
8.08
8.068
8.008
8.052
8.06
8.048
8.032
8.052
8.076
8.032
8.004
8.028
8.06
8.048
8.004
8.008
8.02
8.024
8.02
7.996
8.016
8.048
7.992
7.972
8.016
8.016
8.004
7.964
7.972
8.04
7.988
7.956
8.004
8.032
8.012
7.96
7.96
8.012
8.012
7.956
7.956
7.976
7.992
7.94
7.968
7.96
7.988
7.96
7.936
7.98
7.984
7.92
7.92
7.976
7.984
7.984
7.924
7.968
7.972
7.968
7.968
7.94
7.964
7.964
7.952
7.944
7.976
7.976
7.948
7.936
7.964
7.984
7.952
7.952
7.952
8
7.976
7.932
7.98
7.988
8.036
7.988
8.016
8.016
8.004
8.028
8.096
8.1
8.1
8.032
8
8.028
8.016
7.98
7.964
7.98
8.004
7.932
7.916
7.904
7.932
7.912
7.908
7.92
7.964
7.916
7.88
7.908
7.952
7.9
7.768
7.72
7.804
7.932
8.224
8.68
9.344
10.008
10.232
9.84
9.312
8.888
8.372
7.852
7.764
7.784
7.888
7.908
8.02
8.052
8.044
8
8.024
8.04
8.008
7.996
8.004
8.028
8.036
8.004
8
8.02
8.056
8.04
8.048
8.04
8.076
8.052
8.028
8.056
8.084
8.08
8.028
8.06
8.104
8.092
8.068
8.112
8.136
8.136
8.104
8.124
8.16
8.192
8.144
8.172
8.228
8.208
8.2
8.24
8.268
8.32
8.304
8.292
8.352
8.412
8.428
8.416
8.5
8.564
8.532
8.564
8.64
8.692
8.708
8.74
8.776
8.856
8.892
8.904
8.92
8.984
8.996
8.988
8.94
8.952
8.968
8.912
8.836
8.768
8.72
8.616
8.524
8.456
8.408
8.296
8.244
8.192
8.188
8.112
8.028
7.968
8
8.028
7.976
7.944
7.948
7.976
7.944
7.888
7.932
7.932
7.9
7.904
7.912
7.996
7.976
7.944
7.936
7.916
7.896
7.852
7.872
7.94
7.912
7.896
7.904
7.916
7.904
7.872
7.92
7.932
7.944
7.908
7.852
7.936
7.932
7.888
7.852
7.888
7.888
7.856
7.844
7.876
7.952
7.916
7.848
7.876
7.908
7.888
7.848
7.884
7.92
7.852
7.796
7.828
7.856
7.86
7.82
7.816
7.856
7.86
7.864
7.836
7.86
7.876
7.832
7.804
7.82
7.884
7.864
7.828
7.892
7.924
7.904
7.868
7.872
7.952
7.96
7.948
7.92
7.956
7.948
7.904
7.868
7.876
7.94
7.868
7.824
7.868
7.888
7.824
7.792
7.832
7.888
7.816
7.844
7.82
7.86
7.852
7.844
7.82
7.816
7.74
7.656
7.728
7.932
8.308
8.776
9.448
10.076
10.228
9.792
9.2
8.792
8.3
7.864
7.7
7.76
7.888
7.956
7.952
8.008
8.072
8.024
7.984
7.996
7.996
8.008
8.004
8.004
8.044
8.068
8.064
8.06
8.088
8.104
8.092
8.004
8.032
8.096
8.104
8.096
8.124
8.172
8.096
8.092
8.12
8.16
8.176
8.136
8.16
8.244
8.256
8.22
8.208
8.216
8.316
8.3
8.316
8.308
8.32
8.316
8.324
8.392
8.468
8.492
8.476
8.508
8.564
8.548
8.568
8.628
8.7
8.696
8.732
8.8
8.896
8.912
8.964
8.932
8.972
8.992
9.012
9.06
9.068
9.048
9.024
9.016
8.992
8.92
8.792
8.708
8.636
8.58
8.492
8.42
8.388
8.336
8.328
8.252
8.272
8.272
8.248
8.18
8.148
8.164
8.14
8.18
8.192
8.204
8.188
8.12
8.076
8.104
8.168
8.184
8.12
8.148
8.188
8.204
8.156
8.172
8.172
8.132
8.116
8.1
8.184
8.172
8.144
8.128
8.2
8.192
8.164
8.096
8.16
8.208
8.136
8.14
8.2
8.228
8.168
8.136
8.112
8.128
8.136
8.132
8.152
8.188
8.164
8.132
8.16
8.132
8.116
8.076
8.088
8.156
8.164
8.124
8.124
8.168
8.18
8.116
8.104
8.096
8.14
8.1
8.088
8.164
8.24
8.168
8.16
8.204
8.192
8.212
8.244
8.236
8.22
8.244
8.236
8.168
8.116
8.052
8.1
8.16
8.22
8.156
8.072
8.092
8.12
8.188
8.124
8.024
8.028
8.112
8.032
8.056
8.116
8.112
7.992
7.88
7.86
8.02
8.244
8.66
9.212
9.928
10.56
10.464
9.88
9.356
8.904
8.304
7.892
7.916
8.1
8.176
8.16
8.26
8.212
8.14
8.192
8.272
8.22
8.172
8.12
8.232
8.28
8.248
8.132
8.112
8.2
8.208
8.104
8.156
8.232
8.264
8.268
8.212
8.248
8.268
8.264
8.332
8.32
8.26
8.304
8.296
8.332
8.3
8.344
8.248
8.296
8.376
8.352
8.272
8.364
8.472
8.496
8.552
8.532
8.484
8.44
8.512
8.484
8.524
8.652
8.7
8.684
8.748
8.836
8.852
8.808
8.904
8.968
8.976
8.984
8.984
9.056
9.116
9.124
9.1
9.116
9.18
9.18
9.128
9.104
9.064
8.944
8.872
8.784
8.82
8.74
8.58
8.56
8.488
8.304
8.244
8.336
8.344
8.412
8.412
8.336
8.284
8.272
8.204
8.228
8.296
8.364
8.3
8.28
8.276
8.264
8.332
8.272
8.244
8.276
8.236
8.228
8.344
8.344
8.284
8.26
8.268
8.316
8.36
8.3
8.36
8.436
8.304
8.392
8.412
8.416
8.304
8.304
8.284
8.296
8.448
8.38
8.324
8.336
8.376
8.32
8.264
8.336
8.352
8.268
8.36
8.448
8.408
8.304
8.304
8.368
8.38
8.348
8.36
8.404
8.58
8.44
8.34
8.304
8.424
8.44
8.444
8.492
8.548
8.536
8.368
8.228
8.224
8.4
8.424
8.344
8.404
8.4
8.372
8.292
8.26
8.22
8.16
8.188
8.312
8.42
8.284
8.192
8.192
8.372
8.368
8.164
8.072
8.26
8.684
9.196
9.64
10.324
10.748
10.328
9.728
9.22
8.752
8.2
8.084
8.4
8.424
8.38
8.284
8.408
8.48
8.384
8.376
8.424
8.496
8.436
8.328
8.24
8.28
8.384
8.356
8.38
8.464
8.288
8.28
8.452
8.532
8.436
8.352
8.384
8.424
8.476
8.46
8.444
8.5
8.5
8.492
8.424
8.48
8.46
8.384
8.5
8.636
8.596
8.544
8.508
8.56
8.58
8.624
8.596
8.66
8.664
8.632
8.632
8.744
8.824
8.856
8.932
8.972
8.86
8.848
8.932
9.052
9.088
9.08
9.124
9.248
9.1
9.188
9.244
9.276
9.244
9.328
9.26
9.18
9.012
9.088
9.06
8.94
8.824
8.716
8.728
8.628
8.664
8.612
8.52
8.416
8.288
8.368
8.388
8.376
8.32
8.288
8.28
8.276
8.348
8.316
8.26
8.328
8.276
8.24
8.248
8.36
8.388
8.424
8.364
8.308
8.26
8.24
8.256
8.28
8.252
8.26
8.288
8.36
8.36
8.28
8.248
8.304
8.4
8.344
8.3
8.308
8.3
8.28
8.192
8.408
8.356
8.36
8.232
8.22
8.352
8.344
8.248
8.264
8.244
8.268
8.368
8.328
8.28
8.26
8.332
8.368
8.348
8.376
8.424
8.436
8.444
8.472
8.392
8.392
8.344
8.376
8.272
8.224
8.264
8.264
8.232
8.204
8.268
8.308
8.312
8.272
8.124
8.152
8.168
8.096
8.108
8.144
8.16
8.2
8.168
8.176
7.976
8.056
8.26
8.672
9.144
9.828
10.42
10.66
10.188
9.448
9.036
8.576
8.052
7.972
8.088
8.196
8.268
8.288
8.32
8.288
8.256
8.304
8.324
8.304
8.36
8.276
8.236
8.22
8.304
8.336
8.336
8.212
8.148
8.26
8.324
8.316
8.344
8.332
8.384
8.328
8.256
8.38
8.332
8.344
8.412
8.4
8.316
8.32
8.392
8.324
8.396
8.384
8.364
8.408
8.484
8.504
8.432
8.44
8.548
8.568
8.616
8.704
8.724
8.664
8.656
8.728
8.836
8.832
8.808
8.872
8.944
9.016
9.052
9.04
9.08
9.12
9.192
9.112
9.156
9.204
9.188
9.152
9.168
9.132
9.084
9.064
8.872
8.848
8.772
8.644
8.624
8.744
8.64
8.436
8.44
8.412
8.468
8.412
8.312
8.384
8.34
8.408
8.276
8.232
8.276
8.288
8.296
8.372
8.352
8.36
8.248
8.276
8.38
8.312
8.292
8.248
8.36
8.376
8.304
8.408
8.44
8.468
8.336
8.164
8.232
8.156
8.236
8.204
8.304
8.396
8.44
8.34
8.388
8.324
8.3
8.328
8.324
8.204
8.22
8.144
8.244
8.3
8.44
8.34
8.172
8.272
8.144
8.216
8.188
8.364
8.404
8.316
8.328
8.292
8.184
8.28
8.232
8.332
8.404
8.4
8.304
8.312
8.236
8.28
8.216
8.232
8.172
8.272
8.224
8.112
8.252
8.252
8.192
8.084
8.092
8.156
8.14
8.156
8.032
8.096
8.084
8.176
8.104
7.984
7.972
8.048
8.028
8.44
9.032
9.672
10.28
10.5
10.028
9.408
8.928
8.448
8.024
7.928
7.944
8.052
8.156
8.26
8.22
8.2
8.204
8.132
8.016
8.152
8.26
8.208
8.192
8.188
8.204
8.172
8.052
8.152
8.12
8.228
8.2
8.18
8.18
8.212
8.072
8.172
8.212
8.22
8.34
8.268
8.136
8.216
8.236
8.232
8.18
8.224
8.296
8.272
8.344
8.408
8.364
8.312
8.332
8.364
8.352
8.4
8.38
8.42
8.508
8.436
8.444
8.48
8.68
8.728
8.764
8.732
8.8
8.852
8.812
8.892
8.896
8.884
8.856
8.944
9.036
9.164
9.092
9.004
9.008
8.916
8.828
8.776
8.748
8.588
8.548
8.476
8.4
8.336
8.316
8.328
8.276
8.192
8.148
8.328
8.3
8.156
8.124
8.18
8.084
8.012
7.892
8.084
8.088
8.152
8.128
8.044
7.996
8.14
8.148
8.168
8.116
8.044
8.092
8.1
7.948
8.04
7.996
8.068
8.124
8.152
8.1
8.064
8.056
8.04
8.092
8.136
8.08
8.072
8.088
8.052
8.016
8.072
8.088
8.052
8.06
7.988
8.136
8.052
7.956
7.892
7.972
7.892
8.032
8.084
8.124
8.096
8.044
8.056
7.988
7.96
8.04
8.112
8.168
8.196
8.204
8.048
7.852
7.952
8.02
8.064
7.944
7.928
7.9
7.852
7.812
7.836
7.88
7.812
7.812
7.876
7.808
7.804
7.86
7.796
7.848
7.82
7.752
7.68
7.572
7.724
7.864
8.14
8.66
9.296
9.972
10.108
9.64
9.028
8.508
8.052
7.628
7.564
7.62
7.768
7.808
7.816
7.816
7.828
7.864
7.848
7.712
7.688
7.732
7.792
7.68
7.748
7.708
7.728
7.72
7.716
7.752
7.784
7.752
7.688
7.756
7.804
7.86
7.796
7.724
7.724
7.752
7.796
7.76
7.768
7.76
7.8
7.768
7.852
7.852
7.792
7.828
7.82
7.816
7.904
7.876
7.928
8.048
7.876
7.876
8.076
8.136
7.928
7.78
7.852
8.084
8.236
8.2
8.16
8.112
8.332
8.324
8.26
8.308
8.424
8.4
8.424
8.42
8.444
8.496
8.456
8.46
8.408
8.348
8.132
8.092
8.032
8.024
7.96
7.968
7.892
7.836
7.692
7.552
7.632
7.7
7.636
7.492
7.492
7.508
7.604
7.64
7.608
7.448
7.528
7.452
7.528
7.528
7.488
7.48
7.336
7.352
7.536
7.456
7.464
7.6
7.588
7.42
7.42
7.312
7.484
7.56
7.512
7.54
7.48
7.508
7.42
7.524
7.524
7.54
7.512
7.42
7.416
7.424
7.488
7.484
7.4
7.468
7.472
7.432
7.344
7.384
7.432
7.4
7.452
7.488
7.48
7.544
7.548
7.584
7.54
7.6
7.54
7.528
7.408
7.556
7.572
7.556
7.556
7.548
7.512
7.392
7.324
7.424
7.4
7.464
7.416
7.268
7.232
7.176
7.336
7.408
7.508
7.476
7.416
7.312
7.16
7.156
7.148
7.32
7.572
7.992
8.56
9.308
9.64
9.452
8.78
8.356
7.908
7.34
7.172
7.236
7.212
7.264
7.396
7.588
7.564
7.444
7.348
7.352
7.276
7.476
7.472
7.528
7.48
7.412
7.532
7.5
7.528
7.54
7.468
7.572
7.576
7.504
7.492
7.512
7.4
7.352
7.428
7.556
7.596
7.62
7.588
7.716
7.588
7.584
7.656
7.668
7.636
7.632
7.66
7.676
7.748
7.732
7.764
7.656
7.8
7.8
7.808
7.94
7.996
7.952
7.988
8.016
8.08
8.084
8.148
8.164
8.2
8.252
8.296
8.188
8.312
8.392
8.428
8.372
8.376
8.4
8.436
8.424
8.316
8.152
8.172
8.26
8.296
8.192
7.98
7.772
7.752
7.808
7.792
7.74
7.76
7.812
7.72
7.584
7.504
7.536
7.696
7.784
7.664
7.564
7.488
7.612
7.664
7.632
7.7
7.724
7.576
7.464
7.592
7.604
7.672
7.556
7.724
7.784
7.768
7.576
7.62
7.736
7.664
7.688
7.648
7.652
7.536
7.6
7.644
7.624
7.672
7.692
7.7
7.66
7.612
7.624
7.72
7.676
7.572
7.62
7.616
7.688
7.824
7.836
7.804
7.696
7.764
7.852
7.72
7.676
7.696
7.832
7.824
7.604
7.616
7.676
7.624
7.652
7.732
7.7
7.608
7.592
7.616
7.54
7.564
7.58
7.728
7.648
7.64
7.58
7.572
7.592
7.468
7.428
7.48
7.508
7.644
8.092
8.464
9.088
9.612
9.984
9.624
9.04
8.432
8.06
7.592
7.284
7.372
7.732
7.72
7.724
7.744
7.852
7.768
7.8
7.82
7.84
7.78
7.68
7.6
7.732
7.784
7.748
7.964
7.844
7.668
7.66
7.756
7.808
7.804
7.892
7.94
7.96
7.88
7.844
7.756
7.756
7.948
7.968
8.016
8.056
7.968
7.952
7.908
7.84
8.04
8.088
8.028
7.94
7.976
8.072
8.116
8.044
8.204
8.224
8.176
8.144
8.232
8.324
8.324
8.256
8.296
8.428
8.428
8.624
8.608
8.6
8.62
8.708
8.692
8.732
8.556
8.644
8.684
8.712
8.732
8.756
8.528
8.536
8.38
8.336
8.268
8.212
8.264
8.228
8.172
8.284
8.2
8.056
8.124
8.092
8.004
7.952
7.956
7.876
7.956
7.916
7.8
7.88
7.884
8.016
8.116
8.04
7.992
7.808
8.004
7.984
8.004
8.016
8.104
7.928
7.928
7.848
7.984
8.072
8.072
8.148
8.096
7.992
8
8.104
8.152
8.148
8.116
8.096
8.112
8.028
7.872
7.948
7.976
7.956
8.04
8.056
8.14
8.336
8.204
8.02
8.008
8.2
8.192
8.136
8.196
8.104
8.048
8.028
7.98
7.88
8.004
8.052
8.044
8.048
7.952
7.848
7.86
7.832
7.82
7.856
7.892
7.908
7.864
7.884
7.896
7.884
7.836
7.792
7.896
8.144
8.452
9.052
9.748
10.188
9.96
9.364
8.956
8.568
8.056
7.696
7.756
7.78
7.832
7.86
8.116
8.048
7.928
7.944
7.984
8.016
8.044
7.952
7.956
7.928
8.164
8.1
8.02
7.92
7.964
7.992
7.916
7.92
7.972
7.984
8.008
8.064
8.12
8.096
8.084
7.988
8.02
8.032
7.984
8.088
8.112
8.184
8.232
8.196
8.076
8.068
8.104
8.088
8.108
8.14
8.176
8.228
8.308
8.376
8.348
8.372
8.392
8.396
8.412
8.4
8.504
8.624
8.684
8.656
8.536
8.536
8.532
8.524
8.728
8.792
8.796
8.812
8.864
8.776
8.74
8.704
8.696
8.68
8.58
8.532
8.42
8.424
8.368
8.3
8.204
8.208
8.176
8.132
8.112
7.968
7.988
8
8.016
8.036
8.072
8.068
7.96
7.812
7.912
8.008
8.04
7.92
7.924
7.84
7.844
7.988
7.844
7.888
8.084
8.036
7.884
7.96
7.972
7.936
7.94
7.928
7.976
7.952
7.944
7.96
7.98
7.916
7.844
7.964
7.988
7.888
7.892
7.912
7.948
7.932
7.944
7.972
8.02
8.012
7.976
8.016
8.028
8.024
7.908
7.864
7.864
7.912
7.896
7.884
7.872
7.86
7.768
7.764
7.808
7.788
7.756
7.764
7.748
7.736
7.748
7.756
7.8
7.844
7.764
7.692
7.724
7.632
7.624
7.812
8.104
8.54
9.004
9.624
9.972
9.792
9.208
8.704
8.22
7.76
7.596
7.568
7.656
7.824
7.94
7.924
7.876
7.88
7.868
7.9
7.868
7.876
7.912
7.916
7.844
7.86
7.78
7.84
7.892
7.868
7.856
7.764
7.828
7.788
7.832
7.928
7.892
7.868
7.876
7.896
7.92
7.924
7.912
7.972
7.968
7.948
7.96
7.968
8.024
8.008
7.988
8.012
8.06
8.06
8.084
8.104
8.128
8.14
8.116
8.18
8.268
8.268
8.28
8.308
8.404
8.408
8.4
8.452
8.536
8.576
8.576
8.548
8.636
8.656
8.668
8.672
8.708
8.76
8.72
8.716
8.628
8.632
8.552
8.472
8.428
8.356
8.292
8.2
8.216
8.208
8.14
8.08
8.052
8.044
7.98
7.932
7.944
7.928
7.932
7.896
7.9
7.928
7.956
7.9
7.884
7.964
7.968
7.96
7.956
7.924
7.964
7.92
7.948
7.94
7.92
7.94
7.948
7.92
7.94
7.928
7.908
7.92
7.912
7.952
7.892
7.88
7.94
7.952
7.94
7.956
8.048
8.04
7.988
7.976
8
8.028
8.044
8.056
8.044
8.048
7.964
7.948
7.912
7.904
7.92
7.872
7.864
7.876
7.84
7.812
7.8
7.772
7.792
7.748
7.776
7.764
7.78
7.784
7.788
7.776
7.76
7.656
7.6
7.676
7.832
8.14
8.552
9.132
9.764
9.976
9.604
9.012
8.568
8.072
7.648
7.552
7.684
7.752
7.832
7.824
7.932
7.88
7.868
7.872
7.896
7.94
7.904
7.88
7.908
7.944
7.892
7.868
7.86
7.928
7.924
7.904
7.912
7.928
7.924
7.928
7.936
7.972
7.992
7.944
7.948
7.948
8
7.992
7.936
8.012
8.036
8.036
8.028
8.076
8.076
8.076
8.084
8.108
8.164
8.18
8.124
8.164
8.224
8.236
8.264
8.28
8.324
8.364
8.412
8.416
8.448
8.476
8.54
8.524
8.584
8.576
8.644
8.656
8.732
8.712
8.668
8.68
8.66
8.704
8.632
8.64
8.704
8.6
8.516
8.428
8.304
8.316
8.248
8.124
8.032
8.044
8.1
8.048
7.952
7.988
7.976
7.94
7.92
7.936
7.972
7.92
7.904
7.884
7.932
7.908
7.892
7.904
7.932
7.932
7.912
7.924
7.924
7.892
7.88
7.944
7.948
8
7.968
7.876
7.912
7.96
7.932
7.868
7.916
7.956
7.948
7.948
8.04
7.984
8.064
7.956
8.008
8.064
8.056
8.048
8.016
8.06
8.06
7.972
7.912
7.928
7.928
7.904
7.872
7.844
7.84
7.792
7.788
7.788
7.8
7.788
7.732
7.78
7.796
7.704
7.756
7.74
7.828
7.7
7.612
7.624
7.748
8.04
8.508
9.004
9.624
9.916
9.748
9.16
8.66
8.14
7.624
7.352
7.524
7.768
7.824
7.864
7.86
7.868
7.892
7.82
7.812
7.864
7.844
7.812
7.796
7.852
7.864
7.824
7.796
7.864
7.856
7.828
7.796
7.876
7.904
7.884
7.848
7.852
7.908
7.892
7.896
7.896
7.936
7.924
7.964
7.96
7.944
7.984
7.96
7.96
8.016
8.048
8.04
8.064
8.072
8.104
8.088
8.208
8.18
8.176
8.192
8.208
8.196
8.328
8.336
8.328
8.404
8.444
8.468
8.484
8.508
8.588
8.62
8.608
8.624
8.684
8.712
8.684
8.664
8.684
8.692
8.628
8.552
8.492
8.484
8.384
8.296
8.252
8.216
8.152
8.08
8.04
8.028
7.992
7.936
7.94
7.948
7.924
7.884
7.876
7.916
7.908
7.88
7.848
7.88
7.9
7.868
7.848
7.92
7.944
7.928
7.868
7.856
7.904
7.92
7.904
7.928
7.896
7.9
7.876
7.828
7.884
7.908
7.916
7.936
8
8.044
8.012
7.972
8.04
8.064
8.08
8.092
8.12
8.108
8.064
7.992
7.98
7.964
7.964
7.904
7.916
7.916
7.868
7.848
7.832
7.848
7.824
7.804
7.772
7.832
7.828
7.784
7.776
7.8
7.824
7.792
7.736
7.636
7.676
7.772
8.004
8.392
8.908
9.512
9.896
9.668
9.16
8.632
8.164
7.672
7.54
7.632
7.7
7.768
7.868
7.904
7.856
7.844
7.86
7.888
7.848
7.84
7.868
7.892
7.856
7.868
7.872
7.908
7.84
7.856
7.856
7.92
7.912
7.852
7.916
7.984
7.996
8.028
8.06
8.028
7.968
7.904
7.9
8.012
8.032
8.024
8.028
8.04
8.08
8.076
8.072
8.08
8.132
8.152
8.152
8.164
8.2
8.232
8.22
8.232
8.28
8.332
8.336
8.348
8.432
8.472
8.464
8.46
8.516
8.548
8.592
8.576
8.632
8.684
8.716
8.7
8.732
8.74
8.712
8.704
8.652
8.616
8.572
8.476
8.424
8.4
8.34
8.264
8.196
8.192
8.16
8.124
8.072
8.072
8.048
8.052
8.02
8.008
8.032
8.004
8
8.004
8.06
7.988
7.972
7.992
8.04
8.048
7.976
8.004
8.06
8.068
8.064
8.004
7.98
7.9
7.912
7.932
7.972
7.976
7.972
8.052
8.1
8.128
8.096
8.068
8.172
8.188
8.192
8.056
8.076
8.112
8.068
8.052
8.02
8.04
8.024
7.976
7.964
7.984
7.956
7.92
7.844
7.944
8
7.94
7.904
7.892
7.936
7.932
7.88
7.92
7.876
7.78
7.716
7.8
8.008
8.368
8.744
9.416
9.96
9.992
9.48
9
8.644
8.176
7.776
7.676
7.716
7.848
7.952
7.984
8.036
8.068
7.992
7.964
8.008
8.02
8.064
8.008
8.012
8.044
8.048
8.024
8.048
8.044
8.108
8.048
8.008
8.06
8.088
8.08
8.06
8.068
8.1
8.124
8.08
8.136
8.124
8.104
8.112
8.124
8.196
8.164
8.136
8.156
8.22
8.212
8.212
8.212
8.28
8.256
8.284
8.264
8.328
8.392
8.392
8.404
8.432
8.488
8.516
8.512
8.544
8.612
8.612
8.588
8.624
8.716
8.704
8.716
8.752
8.784
8.796
8.792
8.752
8.752
8.728
8.64
8.6
8.556
8.54
8.432
8.336
8.316
8.304
8.248
8.164
8.184
8.168
8.156
8.112
8.064
8.12
8.1
8.092
8.072
8.136
8.112
8.104
8.072
8.052
8.08
8.068
8.028
8.068
8.16
8.104
7.984
7.98
8.004
7.968
7.956
7.984
8.056
8.044
8.068
8.088
8.1
8.084
8.06
8.064
8.16
8.168
8.184
8.204
8.264
8.236
8.104
7.992
7.972
7.984
7.996
7.984
8.048
8.072
7.968
7.88
7.868
7.908
7.916
7.924
7.928
7.932
7.852
7.776
7.804
7.852
7.888
7.8
7.684
7.828
8
8.248
8.752
9.36
10.012
10.188
9.828
9.276
8.764
8.212
7.728
7.668
7.788
7.872
7.884
7.9
7.928
7.948
7.924
7.924
8.016
8.012
8
7.984
8.04
8.06
8.012
7.976
8.044
8.08
8.012
8
8.084
8.076
8.032
8.02
8.116
8.1
8.12
8.128
8.192
8.188
8.1
8.032
8.104
8.188
8.14
8.116
8.132
8.172
8.192
8.148
8.18
8.22
8.244
8.28
8.264
8.324
8.392
8.392
8.432
8.452
8.456
8.412
8.436
8.484
8.572
8.588
8.616
8.608
8.644
8.688
8.7
8.784
8.892
8.824
8.752
8.716
8.772
8.696
8.604
8.568
8.596
8.596
8.512
8.452
8.46
8.408
8.324
8.276
8.24
8.196
8.192
8.176
8.152
8.144
8.108
8.096
8.064
8.14
8.184
8.136
8.148
8.2
8.22
8.16
8.116
8.124
8.124
8.016
8.076
8.112
8.172
8.152
8.116
8.108
8.132
8.14
8.156
8.188
8.26
8.276
8.2
8.208
8.204
8.24
8.256
8.276
8.34
8.316
8.268
8.212
8.18
8.164
8.172
8.112
8.132
8.128
8.08
8.116
8.096
8.06
8.036
7.984
7.984
8.028
8.036
8.048
8.02
8.056
8.08
8.028
7.908
7.832
7.904
8.088
8.408
8.864
9.364
9.948
10.144
9.836
9.228
8.808
8.416
7.968
7.752
7.788
7.824
7.952
8.148
8.348
8.452
8.324
8.14
8.02
8.02
8.104
8.204
8.128
7.848
7.76
7.904
8.004
8.032
8.004
8.128
8.268
8.464
8.528
8.68
8.804
8.724
8.444
8.12
8.064
7.984
7.644
7.5
7.676
7.904
8.04
8.064
8.096
8.196
8.16
8.16
8.204
8.276
8.28
8.292
8.368
8.428
8.452
8.388
8.408
8.656
8.944
8.756
8.524
8.552
8.448
8.324
8.484
8.524
8.496
8.54
8.648
8.748
8.788
8.792
8.756
8.784
8.78
8.716
8.688
8.644
8.62
8.556
8.468
8.44
8.412
8.332
8.26
8.228
8.212
8.188
8.112
8.084
8.072
8.096
8.032
8.012
8.032
8.052
8.012
7.996
8.016
8.044
8.024
7.996
8.02
8.02
7.996
7.964
7.956
8
7.988
7.94
7.952
7.96
7.988
7.976
8
8.068
8.032
8.02
8
8.036
8.064
8.064
8.068
8.076
8.104
8.052
7.98
7.988
8.028
7.98
7.956
7.948
7.956
7.916
7.88
7.84
7.856
7.852
7.828
7.828
7.848
7.856
7.832
7.808
7.86
7.852
7.784
7.652
7.672
7.764
7.936
8.288
8.8
9.44
9.944
9.94
9.432
8.932
8.484
7.956
7.624
7.628
7.744
7.8
7.86
7.924
7.952
7.896
7.856
7.888
7.92
7.876
7.868
7.884
7.916
7.88
7.868
7.9
7.916
7.9
7.848
7.88
7.916
7.9
7.892
7.888
7.92
7.96
7.936
7.924
7.956
7.944
7.964
7.94
7.968
8
7.988
7.988
8.02
8.032
8.02
8.004
8.044
8.104
8.096
8.08
8.1
8.152
8.192
8.184
8.208
8.224
8.248
8.248
8.272
8.336
8.368
8.384
8.392
8.452
8.484
8.472
8.496
8.52
8.584
8.56
8.556
8.556
8.564
8.552
8.476
8.412
8.412
8.356
8.268
8.236
8.188
8.152
8.068
8.028
8.012
8
7.96
7.92
7.936
7.948
7.916
7.88
7.896
7.916
7.896
7.884
7.856
7.896
7.9
7.86
7.856
7.892
7.9
7.848
7.852
7.888
7.884
7.872
7.84
7.88
7.876
7.816
7.828
7.892
7.9
7.912
7.916
7.92
7.936
7.912
7.908
7.96
8
7.992
7.948
7.948
7.944
7.916
7.868
7.86
7.86
7.884
7.804
7.792
7.792
7.784
7.748
7.76
7.756
7.74
7.736
7.716
7.756
7.768
7.744
7.724
7.696
7.628
7.568
7.6
7.76
8.12
8.592
9.136
9.748
9.912
9.48
8.904
8.448
7.996
7.604
7.488
7.608
7.728
7.804
7.82
7.82
7.812
7.84
7.828
7.796
7.82
7.82
7.82
7.788
7.824
7.82
7.824
7.82
7.824
7.852
7.824
7.812
7.812
7.84
7.876
7.82
7.808
7.852
7.9
7.864
7.864
7.872
7.928
7.92
7.896
7.92
7.964
7.948
7.936
7.964
8
8.02
7.996
8.024
8.064
8.084
8.084
8.072
8.14
8.172
8.172
8.208
8.256
8.296
8.28
8.3
8.36
8.412
8.416
8.424
8.472
8.528
8.516
8.512
8.56
8.588
8.592
8.544
8.512
8.512
8.476
8.404
8.348
8.3
8.256
8.148
8.108
8.096
8.084
7.996
7.94
7.948
7.956
7.924
7.856
7.88
7.888
7.884
7.86
7.828
7.872
7.856
7.836
7.852
7.856
7.852
7.84
7.828
7.864
7.856
7.836
7.804
7.852
7.9
7.824
7.812
7.804
7.852
7.828
7.804
7.82
7.848
7.836
7.852
7.912
7.92
7.92
7.892
7.896
7.976
8
7.956
7.916
7.952
7.932
7.876
7.832
7.848
7.848
7.82
7.792
7.764
7.764
7.74
7.72
7.736
7.76
7.712
7.696
7.696
7.748
7.728
7.696
7.708
7.688
7.604
7.512
7.568
7.756
8.124
8.56
9.16
9.752
9.9
9.428
8.86
8.448
8.004
7.572
7.452
7.576
7.728
7.772
7.8
7.816
7.852
7.828
7.804
7.8
7.808
7.84
7.8
7.816
7.832
7.872
7.8
7.788
7.836
7.864
7.82
7.808
7.856
7.88
7.864
7.824
7.872
7.892
7.896
7.896
7.872
7.936
7.92
7.916
7.912
7.94
7.956
7.94
7.968
8.012
8.032
8.036
8.024
8.052
8.08
8.088
8.072
8.104
8.184
8.148
8.18
8.216
8.284
8.268
8.26
8.348
8.384
8.416
8.38
8.412
8.476
8.516
8.508
8.5
8.54
8.576
8.56
8.532
8.524
8.516
8.444
8.396
8.34
8.324
8.248
8.164
8.148
8.104
8.072
7.988
7.98
7.984
7.956
7.9
7.9
7.924
7.916
7.88
7.864
7.872
7.896
7.852
7.832
7.872
7.888
7.856
7.84
7.852
7.904
7.864
7.816
7.82
7.872
7.852
7.832
7.828
7.86
7.84
7.816
7.816
7.832
7.84
7.84
7.824
7.888
7.928
7.896
7.888
7.92
7.952
7.948
7.96
7.98
7.996
7.976
7.904
7.9
7.9
7.884
7.848
7.832
7.84
7.816
7.752
7.748
7.78
7.78
7.728
7.724
7.752
7.768
7.768
7.728
7.756
7.792
7.736
7.624
7.556
7.664
7.756
8.064
8.536
9.128
9.716
9.892
9.52
8.992
8.548
8.064
7.62
7.536
7.648
7.708
7.772
7.836
7.86
7.852
7.816
7.832
7.868
7.824
7.788
7.84
7.856
7.852
7.824
7.828
7.872
7.856
7.836
7.844
7.86
7.872
7.88
7.872
7.876
7.928
7.908
7.892
7.912
7.96
7.928
7.916
7.956
8.004
7.952
7.948
7.992
8.052
8.008
8
8.036
8.088
8.084
8.068
8.084
8.136
8.168
8.16
8.188
8.26
8.268
8.276
8.264
8.324
8.384
8.392
8.356
8.44
8.5
8.496
8.484
8.508
8.596
8.596
8.6
8.596
8.616
8.564
8.528
8.496
8.468
8.408
8.3
8.284
8.256
8.224
8.12
8.048
8.072
8.052
8.008
7.932
7.976
7.988
7.932
7.896
7.944
7.964
7.916
7.892
7.9
7.932
7.92
7.872
7.904
7.904
7.896
7.872
7.876
7.908
7.92
7.88
7.864
7.9
7.9
7.86
7.844
7.876
7.904
7.864
7.868
7.928
7.988
7.948
7.932
7.932
7.996
8.012
7.98
8
8.012
8.024
7.944
7.904
7.916
7.912
7.88
7.844
7.872
7.848
7.792
7.756
7.784
7.804
7.776
7.74
7.752
7.796
7.784
7.744
7.752
7.78
7.728
7.656
7.556
7.616
7.736
8.024
8.472
9.08
9.692
9.892
9.536
9.032
8.62
8.132
7.636
7.512
7.62
7.72
7.76
7.84
7.884
7.884
7.852
7.868
7.896
7.868
7.832
7.824
7.884
7.876
7.856
7.848
7.868
7.896
7.884
7.872
7.884
7.924
7.896
7.888
7.912
7.92
7.92
7.912
7.96
7.968
7.948
7.936
7.976
8.008
8.004
7.976
7.996
8.024
8.02
8.028
8.06
8.068
8.104
8.1
8.108
8.152
8.184
8.156
8.156
8.24
8.276
8.272
8.268
8.308
8.38
8.38
8.38
8.432
8.48
8.48
8.464
8.536
8.568
8.58
8.564
8.572
8.58
8.584
8.52
8.44
8.424
8.392
8.304
8.228
8.204
8.204
8.12
8.052
8.032
8.008
7.984
7.94
7.928
7.944
7.916
7.864
7.904
7.94
7.932
7.888
7.88
7.892
7.916
7.892
7.892
7.9
7.912
7.892
7.888
7.908
7.928
7.892
7.856
7.9
7.912
7.872
7.86
7.876
7.896
7.896
7.856
7.9
7.924
7.98
7.932
7.932
7.92
7.964
7.952
7.988
8.004
8.032
7.984
7.976
7.956
7.964
7.928
7.904
7.9
7.928
7.864
7.828
7.824
7.824
7.832
7.788
7.812
7.824
7.844
7.784
7.828
7.82
7.84
7.796
7.72
7.636
7.656
7.708
7.948
8.4
8.976
9.652
9.94
9.748
9.292
8.792
8.356
7.892
7.672
7.632
7.692
7.784
7.852
7.916
7.884
7.916
7.92
7.932
7.892
7.864
7.912
7.952
7.9
7.88
7.956
7.984
7.932
7.92
7.912
7.996
7.96
7.924
7.956
8
7.968
7.98
8
8.048
8.052
8.008
8.02
8.056
8.092
8.08
8.044
8.088
8.128
8.16
8.144
8.156
8.188
8.204
8.196
8.244
8.28
8.268
8.24
8.296
8.36
8.396
8.388
8.44
8.476
8.496
8.504
8.532
8.576
8.66
8.66
8.68
8.736
8.768
8.768
8.752
8.796
8.792
8.74
8.672
8.652
8.68
8.58
8.5
8.444
8.412
8.344
8.276
8.24
8.228
8.204
8.16
8.112
8.144
8.12
8.084
8.056
8.076
8.112
8.056
8.028
8.036
8.08
8.024
8.036
8.04
8.06
8.04
7.956
8.016
8.028
8.024
7.976
8.02
8.016
7.988
7.948
7.952
8
8.036
7.964
8.004
8.068
8.1
8.008
8.016
8.064
8.088
8.152
8.096
8.096
8.092
8.048
8.036
8.048
8.056
8.032
8.012
7.992
8.032
7.992
7.92
7.948
7.964
7.948
7.928
7.94
7.948
7.98
7.956
7.932
7.936
7.932
7.808
7.688
7.776
8.012
8.3
8.744
9.464
10.088
10.22
9.844
9.3
8.836
8.356
7.908
7.784
7.768
7.876
7.924
8.06
8.024
8.104
8.028
7.988
8.04
8.072
7.996
7.976
8.012
8.064
8.056
8.012
8.04
8.064
8.04
8.056
8.072
8.024
8.072
8.1
8.076
8.076
8.108
8.044
8.056
8.116
8.136
8.1
8.068
8.144
8.152
8.096
8.136
8.152
8.188
8.168
8.188
8.228
8.204
8.232
8.244
8.244
8.264
8.316
8.304
8.332
8.376
8.444
8.484
8.448
8.448
8.56
8.568
8.604
8.648
8.66
8.636
8.636
8.696
8.712
8.724
8.64
8.648
8.62
8.624
8.508
8.452
8.424
8.384
8.256
8.184
8.144
8.18
8.1
8.036
8.008
7.996
7.952
7.924
7.976
7.96
7.948
7.92
7.94
7.912
7.888
7.888
7.868
7.872
7.872
7.852
7.832
7.856
7.804
7.816
7.82
7.828
7.876
7.76
7.772
7.784
7.856
7.744
7.7
7.736
7.792
7.792
7.78
7.764
7.78
7.772
7.74
7.74
7.868
7.832
7.752
7.756
7.792
7.796
7.676
7.664
7.684
7.688
7.628
7.612
7.652
7.592
7.616
7.572
7.576
7.624
7.608
7.524
7.568
7.588
7.616
7.56
7.572
7.492
7.392
7.396
7.44
7.74
8.112
8.632
9.308
9.684
9.628
9.084
8.58
8.124
7.612
7.348
7.252
7.404
7.488
7.496
7.54
7.54
7.584
7.6
7.548
7.524
7.548
7.576
7.54
7.544
7.544
7.572
7.556
7.532
7.544
7.548
7.568
7.532
7.552
7.596
7.564
7.568
7.6
7.66
7.62
7.604
7.64
7.688
7.672
7.664
7.692
7.704
7.748
7.748
7.772
7.816
7.82
7.844
7.844
7.88
7.976
7.944
7.932
7.972
8.084
8.048
8.064
8.128
8.192
8.2
8.208
8.244
8.268
8.296
8.312
8.352
8.412
8.424
8.412
8.408
8.456
8.452
8.404
8.368
8.368
8.336
8.264
8.18
8.148
8.136
8.084
8.012
7.972
7.972
7.956
7.884
7.916
7.908
7.868
7.84
7.824
7.88
7.872
7.84
7.824
7.824
7.844
7.816
7.828
7.828
7.86
7.844
7.804
7.844
7.868
7.844
7.816
7.84
7.864
7.84
7.836
7.848
7.884
7.856
7.82
7.82
7.852
7.86
7.828
7.808
7.824
7.86
7.824
7.876
7.9
7.924
7.872
7.852
7.9
7.968
7.948
7.896
7.936
7.936
7.92
7.808
7.828
7.872
7.84
7.82
7.868
7.82
7.788
7.752
7.772
7.792
7.756
7.756
7.72
7.796
7.8
7.792
7.768
7.788
7.768
7.668
7.612
7.748
7.988
8.376
8.932
9.58
10.156
10.128
9.572
8.984
8.516
8.008
7.636
7.696
7.8
7.9
7.92
7.924
7.952
7.98
7.936
7.904
7.924
7.952
7.916
7.932
7.968
8
7.968
7.936
7.98
8.012
7.996
7.968
8.008
8.024
8.044
8.032
8.036
8.052
8.084
8.076
8.08
8.1
8.136
8.08
8.104
8.128
8.156
8.132
8.112
8.188
8.228
8.204
8.18
8.24
8.296
8.276
8.3
8.312
8.38
8.396
8.38
8.416
8.468
8.516
8.5
8.528
8.56
8.612
8.616
8.608
8.68
8.748
8.712
8.724
8.776
8.808
8.776
8.752
8.724
8.732
8.692
8.616
8.588
8.532
8.484
8.38
8.364
8.344
8.296
8.228
8.172
8.2
8.208
8.14
8.116
8.116
8.148
8.104
8.08
8.092
8.096
8.092
8.044
8.068
8.076
8.08
8.032
8.044
8.092
8.052
8.04
8.024
8.068
8.056
8.016
8.008
8.048
8.044
8.028
8
8.016
8.032
7.98
7.944
8.008
8.028
8.004
7.96
8.016
8.068
8.036
8.028
8.008
8.072
8.092
8.096
8.084
8.084
8.088
8.04
8.008
8.008
8
7.968
7.94
7.976
7.956
7.912
7.856
7.892
7.908
7.896
7.844
7.864
7.884
7.872
7.852
7.892
7.868
7.812
7.712
7.732
7.816
8.052
8.456
8.976
9.688
10.188
10.048
9.428
8.884
8.472
7.948
7.616
7.7
7.828
7.888
7.932
7.956
7.992
7.956
7.912
7.92
7.968
7.956
7.924
7.936
7.948
7.96
7.94
7.936
7.972
7.98
7.96
7.944
7.964
8.012
7.988
7.976
7.988
8.008
8.008
7.976
8.016
8.036
8.028
8
8.032
8.08
8.084
8.056
8.076
8.104
8.116
8.112
8.096
8.164
8.176
8.168
8.192
8.244
8.264
8.252
8.272
8.312
8.384
8.368
8.356
8.428
8.48
8.472
8.476
8.504
8.568
8.588
8.584
8.6
8.652
8.64
8.616
8.604
8.604
8.58
8.504
8.428
8.412
8.372
8.308
8.228
8.188
8.184
8.148
8.08
8.076
8.072
8.036
8.004
8
8.008
7.984
7.972
7.948
7.976
7.984
7.952
7.944
7.968
7.992
7.944
7.928
7.956
7.992
7.96
7.936
7.96
7.972
7.944
7.92
7.952
7.948
7.94
7.904
7.928
7.948
7.936
7.912
7.9
7.908
7.94
7.9
7.904
7.912
7.924
7.916
7.892
7.912
7.912
7.896
7.88
7.896
7.892
7.896
7.856
7.876
7.892
7.904
7.9
7.912
7.988
7.98
7.948
7.916
7.968
8.02
8.016
8
7.996
7.988
7.952
7.908
7.904
7.932
7.9
7.864
7.9
7.904
7.836
7.812
7.808
7.84
7.844
7.812
7.804
7.836
7.828
7.824
7.812
7.832
7.772
7.652
7.692
7.808
8.064
8.448
8.948
9.628
10.052
9.88
9.24
8.724
8.288
7.828
7.572
7.716
7.836
7.884
7.928
7.944
7.936
7.92
7.908
7.88
7.928
7.928
7.904
7.876
7.908
7.928
7.924
7.904
7.92
7.94
7.94
7.912
7.944
7.964
7.932
7.928
7.976
8.012
7.988
7.976
7.98
8.016
8.016
8.016
8.016
8.06
8.088
8.064
8.048
8.088
8.116
8.112
8.112
8.144
8.16
8.16
8.184
8.24
8.276
8.272
8.28
8.3
8.372
8.388
8.388
8.436
8.464
8.496
8.508
8.54
8.576
8.596
8.612
8.64
8.68
8.696
8.684
8.648
8.68
8.668
8.604
8.512
8.496
8.484
8.38
8.312
8.26
8.244
8.192
8.128
8.1
8.096
8.056
8.02
8.024
8.02
7.984
7.98
7.928
7.98
8.004
7.972
7.932
7.952
7.968
7.976
7.948
7.94
7.976
7.952
7.936
7.952
7.984
7.956
7.924
7.956
7.968
7.964
7.932
7.916
7.94
7.964
7.94
7.908
7.936
7.936
7.928
7.912
7.936
7.932
7.908
7.896
7.924
7.928
7.896
7.864
7.908
7.92
7.908
7.888
7.876
7.928
7.92
7.896
7.868
7.9
7.904
7.876
7.868
7.9
7.876
7.868
7.864
7.912
7.908
7.88
7.86
7.88
7.9
7.868
7.852
7.88
7.924
7.944
7.964
7.944
7.976
7.968
7.952
8.016
8.068
8.056
7.996
7.98
7.984
7.968
7.932
7.884
7.94
7.928
7.912
7.864
7.868
7.884
7.852
7.824
7.828
7.856
7.848
7.84
7.84
7.888
7.856
7.808
7.748
7.7
7.736
7.824
8.084
8.56
9.092
9.74
10.032
9.756
9.188
8.688
8.216
7.788
7.652
7.732
7.808
7.904
7.956
7.956
7.924
7.908
7.98
7.952
7.936
7.904
7.928
7.944
7.94
7.908
7.964
7.976
7.972
7.944
7.984
7.996
7.992
7.964
7.988
7.996
8.02
7.972
8.024
8.04
8.024
8.008
8.04
8.052
8.08
8.068
8.072
8.084
8.124
8.12
8.116
8.16
8.172
8.168
8.168
8.216
8.268
8.252
8.244
8.308
8.344
8.36
8.332
8.404
8.464
8.472
8.476
8.508
8.556
8.568
8.58
8.628
8.692
8.7
8.712
8.7
8.756
8.756
8.744
8.688
8.7
8.668
8.628
8.54
8.492
8.468
8.384
8.3
8.28
8.248
8.18
8.148
8.112
8.128
8.1
8.056
8.048
8.044
8.052
8.012
8
8.012
8.036
8.024
7.992
8.012
8.012
8.004
8.012
7.996
8.028
7.992
7.988
8.012
8.032
8.016
7.988
7.988
8.004
8.004
7.968
7.968
7.98
7.968
7.98
7.956
8
7.984
7.972
7.948
7.964
8
7.968
7.936
7.96
7.98
7.976
7.908
7.96
7.976
7.96
7.928
7.948
7.96
7.956
7.94
7.936
7.964
7.944
7.904
7.94
7.952
7.948
7.908
7.888
7.944
7.968
7.932
7.916
7.948
7.936
7.932
7.916
7.916
7.96
7.932
7.936
7.936
7.972
7.952
7.892
7.92
7.956
7.968
7.932
7.916
7.956
7.96
7.92
7.904
7.932
7.944
7.956
7.944
7.992
8.032
8.016
7.996
7.996
8.052
8.088
8.064
8.1
8.088
8.064
8.008
7.988
7.992
8.004
7.98
7.968
7.968
7.972
7.908
7.904
7.9
7.92
7.912
7.88
7.908
7.94
7.92
7.892
7.9
7.876
7.764
7.736
7.808
8.028
8.404
8.892
9.488
10.056
10.06
9.508
8.948
8.532
8.08
7.716
7.708
7.856
7.964
7.988
7.984
8.044
8.06
8.016
8
7.988
8.02
8.008
8
8.004
8.04
8.02
7.996
8.036
8.024
8.036
8.036
8.004
8.052
8.088
8.064
8.036
8.064
8.096
8.104
8.076
8.084
8.14
8.108
8.104
8.128
8.16
8.152
8.128
8.164
8.196
8.2
8.188
8.208
8.24
8.272
8.272
8.256
8.32
8.344
8.368
8.376
8.432
8.46
8.476
8.496
8.512
8.588
8.584
8.592
8.66
8.7
8.704
8.704
8.724
8.792
8.804
8.816
8.796
8.84
8.824
8.76
8.728
8.692
8.668
8.564
8.508
8.444
8.444
8.328
8.288
8.268
8.264
8.188
8.148
8.14
8.152
8.112
8.096
8.092
8.104
8.092
8.072
8.072
8.076
8.088
8.068
8.064
8.076
8.088
8.068
8.036
8.076
8.1
8.064
8.016
8.044
8.08
8.064
8.036
8.048
8.064
8.024
8.02
8.032
8.036
8.036
7.98
8.008
8.024
8.04
8.008
7.984
8.004
8.048
8.016
7.968
7.984
8
8.004
7.988
7.996
8.016
7.984
7.968
7.976
8.024
7.976
7.948
7.972
7.992
7.996
7.956
7.96
7.984
8
7.928
7.96
7.956
7.988
7.964
7.924
7.972
7.984
7.948
7.928
7.976
7.992
7.952
7.936
7.956
7.98
7.996
7.916
7.968
7.976
7.988
7.944
7.948
7.984
7.96
7.94
7.936
7.988
7.948
7.96
7.944
7.976
7.996
7.964
7.928
7.96
8.016
8.004
8
8.024
8.08
8.064
8.016
8.048
8.092
8.124
8.116
8.104
8.12
8.072
8.036
8.012
8.028
8.044
7.996
7.984
7.996
7.996
7.956
7.924
7.936
7.952
7.952
7.932
7.936
7.964
7.94
7.944
7.92
7.852
7.768
7.776
7.916
8.28
8.748
9.28
9.904
10.132
9.808
9.176
8.696
8.256
7.856
7.716
7.788
7.92
8.012
8.036
8.028
8.056
8.08
8.04
8.008
8.012
8.048
8.064
8.016
8.024
8.048
8.064
8.036
8.068
8.068
8.088
8.048
8.06
8.056
8.088
8.072
8.064
8.104
8.128
8.116
8.092
8.124
8.168
8.148
8.144
8.168
8.204
8.208
8.192
8.204
8.248
8.256
8.212
8.252
8.304
8.336
8.328
8.316
8.384
8.42
8.432
8.4
8.472
8.516
8.512
8.548
8.596
8.64
8.664
8.644
8.712
8.756
8.788
8.78
8.804
8.88
8.892
8.852
8.828
8.868
8.88
8.792
8.748
8.704
8.664
8.596
8.512
8.456
8.436
8.352
8.268
8.268
8.264
8.208
8.16
8.124
8.168
8.164
8.108
8.084
8.116
8.136
8.072
8.068
8.072
8.104
8.08
8.056
8.096
8.1
8.068
8.06
8.092
8.116
8.096
8.044
8.06
8.108
8.092
8.064
8.056
8.084
8.08
8.076
8.06
8.056
8.06
8.044
8.028
8.036
8.08
8.048
8.024
8.04
8.08
8.032
8.024
8.032
8.052
8.04
7.988
8.024
8.02
8.024
8.02
8.024
8.04
8.028
8.004
7.996
8.044
8.004
8.008
7.984
8.032
8.016
7.992
7.988
8.008
8.028
8.012
7.98
8.008
8.016
7.992
8
8.024
8.008
8
7.968
7.992
8.04
8.028
8.004
8
8.024
8.032
8.004
7.996
8.004
8.044
7.996
8.016
8.024
8.064
8.068
8.048
8.072
8.08
8.08
8.096
8.124
8.172
8.14
8.104
8.06
8.068
8.088
8.064
8.024
8.052
8.028
8.008
7.992
7.984
8.008
7.968
7.972
8
8.004
7.992
7.98
7.988
8.016
7.908
7.764
7.776
7.908
8.16
8.54
9.128
9.812
10.112
9.9
9.34
8.912
8.504
8.024
7.78
7.812
7.948
7.988
8.028
8.068
8.108
8.076
8.04
8.068
8.112
8.092
8.076
8.072
8.104
8.096
8.088
8.088
8.128
8.116
8.072
8.088
8.128
8.156
8.092
8.096
8.12
8.16
8.116
8.092
8.148
8.164
8.172
8.152
8.16
8.188
8.184
8.18
8.2
8.236
8.228
8.224
8.24
8.3
8.28
8.28
8.296
8.344
8.38
8.38
8.38
8.432
8.484
8.472
8.472
8.544
8.588
8.576
8.604
8.648
8.716
8.712
8.716
8.76
8.82
8.828
8.836
8.832
8.848
8.832
8.792
8.728
8.712
8.672
8.576
8.516
8.48
8.436
8.34
8.28
8.28
8.24
8.188
8.12
8.132
8.136
8.096
8.08
8.076
8.072
8.072
8.016
8.036
8.036
8.048
8
8.008
8.024
8.056
8.024
7.992
8.052
8.06
8.024
7.988
8.02
8.044
8.012
8.012
8.008
8.032
8.016
8.004
8
8.028
8.012
7.984
7.992
8.004
7.984
7.96
7.924
7.972
7.972
7.948
7.932
7.968
7.988
7.952
7.94
7.956
7.956
7.932
7.908
7.936
7.956
7.94
7.9
7.932
7.96
7.924
7.916
7.896
7.916
7.944
7.896
7.9
7.924
7.94
7.908
7.904
7.916
7.936
7.908
7.9
7.92
7.952
7.892
7.896
7.916
7.948
7.9
7.868
7.896
7.944
7.948
7.916
7.944
8.004
8.004
7.976
7.948
7.988
8.028
8.04
8.036
8.028
8.036
7.972
7.9
7.92
7.952
7.94
7.88
7.892
7.912
7.86
7.824
7.828
7.852
7.844
7.848
7.844
7.88
7.856
7.836
7.824
7.82
7.732
7.676
7.748
7.972
8.396
8.868
9.424
10.012
10.02
9.456
8.868
8.448
7.996
7.64
7.648
7.764
7.892
7.9
7.916
7.936
7.94
7.936
7.9
7.888
7.916
7.936
7.908
7.888
7.908
7.932
7.912
7.9
7.94
7.964
7.932
7.912
7.936
7.984
7.948
7.936
7.94
7.992
7.992
7.964
7.984
8.016
8.016
8.044
8.028
8.052
8.072
8.048
8.052
8.108
8.116
8.124
8.132
8.14
8.22
8.212
8.208
8.256
8.292
8.32
8.316
8.344
8.416
8.432
8.464
8.468
8.54
8.564
8.556
8.612
8.68
8.688
8.684
8.7
8.776
8.824
8.74
8.728
8.744
8.728
8.684
8.588
8.548
8.5
8.424
8.364
8.308
8.276
8.22
8.148
8.12
8.124
8.088
8.044
8.02
8.016
8.036
7.988
7.964
7.984
7.98
7.964
7.96
7.964
7.976
7.952
7.936
7.952
7.996
7.968
7.944
7.952
7.992
7.96
7.952
7.936
7.96
7.972
7.984
7.956
7.948
7.972
7.964
7.96
7.972
7.976
7.96
7.952
7.948
7.988
7.964
7.916
7.94
7.976
7.952
7.908
7.944
7.964
7.96
7.92
7.936
7.944
7.936
7.916
7.908
7.924
7.948
7.916
7.888
7.932
7.964
7.92
7.92
7.932
7.952
7.936
7.888
7.92
7.936
7.94
7.904
7.916
7.936
7.92
7.92
7.928
7.948
7.928
7.912
7.896
7.948
7.972
7.912
7.884
7.932
7.972
7.94
7.904
7.952
7.968
7.952
7.928
7.94
7.952
7.956
7.928
7.976
8.036
8.028
7.992
8.012
8.04
8.096
8.076
8.076
8.084
8.084
8.032
7.988
8.012
8.016
7.988
7.972
7.96
7.988
7.936
7.9
7.928
7.94
7.944
7.888
7.916
7.932
7.948
7.92
7.912
7.896
7.832
7.76
7.828
7.98
8.372
8.836
9.42
10.024
10.172
9.684
9.08
8.656
8.192
7.78
7.724
7.88
7.972
8.032
8.04
8.064
8.064
8.036
8.016
8.036
8.036
8.04
8.012
8.024
8.048
8.056
8.04
8.04
8.076
8.092
8.068
8.048
8.064
8.124
8.104
8.092
8.096
8.128
8.12
8.112
8.14
8.152
8.164
8.144
8.168
8.2
8.216
8.2
8.196
8.248
8.272
8.24
8.248
8.312
8.32
8.348
8.348
8.38
8.444
8.428
8.432
8.492
8.548
8.56
8.56
8.612
8.68
8.676
8.708
8.728
8.808
8.844
8.832
8.844
8.9
8.932
8.916
8.896
8.912
8.88
8.824
8.74
8.716
8.68
8.572
8.508
8.46
8.412
8.36
8.284
8.26
8.24
8.22
8.144
8.16
8.144
8.144
8.1
8.072
8.096
8.1
8.076
8.064
8.08
8.092
8.072
8.056
8.072
8.128
8.06
8.064
8.056
8.1
8.088
8.076
8.064
8.072
8.068
8.068
8.084
8.096
8.088
8.056
8.06
8.104
8.088
8.048
8.036
8.06
8.108
8.06
8.032
8.048
8.08
8.064
8.028
8.044
8.072
8.064
8.048
8.048
8.064
8.052
8.024
8.02
8.052
8.068
8.024
8.016
8.024
8.068
8.032
8.016
8.032
8.028
8.004
8.004
8.028
8.032
8
8.004
8.016
8.036
8.024
7.98
8.012
8.04
8.036
8.012
8
8.044
8.044
8.024
8.024
8.028
8.044
8.016
7.992
8.024
8.028
8.016
8
8.032
8.06
8.02
8.008
8.024
8.064
8.02
7.996
8.028
8.048
8.044
8.02
8.016
8.04
8.04
8.036
8.028
8.036
8.06
8.032
8.016
8.076
8.096
8.076
8.08
8.124
8.124
8.108
8.128
8.144
8.208
8.18
8.156
8.148
8.112
8.068
8.08
8.076
8.08
8.072
8.036
8.04
8.024
8.024
8.008
7.992
8.008
8.028
8
8.008
8.012
8.048
7.976
7.896
7.848
7.94
8.044
8.364
8.852
9.464
10.092
10.24
9.832
9.264
8.804
8.324
7.9
7.82
7.948
8.032
8.088
8.136
8.156
8.152
8.12
8.136
8.132
8.108
8.08
8.108
8.136
8.108
8.104
8.116
8.148
8.144
8.16
8.132
8.14
8.152
8.152
8.14
8.188
8.192
8.196
8.184
8.208
8.236
8.224
8.208
8.236
8.28
8.252
8.24
8.26
8.3
8.284
8.308
8.316
8.36
8.364
8.34
8.404
8.448
8.456
8.452
8.46
8.536
8.576
8.56
8.576
8.624
8.72
8.72
8.736
8.792
8.844
8.836
8.832
8.892
8.944
8.96
8.936
8.968
9.012
8.976
8.928
8.872
8.872
8.824
8.744
8.66
8.616
8.556
8.496
8.408
8.388
8.328
8.296
8.24
8.224
8.208
8.192
8.16
8.16
8.176
8.152
8.116
8.128
8.168
8.148
8.136
8.136
8.136
8.136
8.112
8.104
8.16
8.148
8.12
8.116
8.12
8.148
8.128
8.112
8.12
8.168
8.124
8.108
8.116
8.152
8.14
8.08
8.096
8.12
8.116
8.1
8.112
8.116
8.088
8.084
8.08
8.112
8.112
8.096
8.088
8.1
8.104
8.076
8.068
8.088
8.096
8.1
8.06
8.072
8.096
8.08
8.06
8.064
8.06
8.064
8.04
8.064
8.064
8.08
8.064
8.032
8.076
8.068
8.06
8.036
8.052
8.08
8.052
8.036
8.048
8.068
8.044
8.044
8.056
8.076
8.052
8.044
8.08
8.092
8.064
8.052
8.024
8.092
8.08
8.048
8.036
8.056
8.084
8.076
8.04
8.056
8.1
8.048
8.036
8.076
8.08
8.06
8.02
8.056
8.076
8.06
8.024
8.048
8.064
8.076
8.056
8.056
8.096
8.124
8.092
8.104
8.092
8.128
8.124
8.148
8.2
8.176
8.144
8.112
8.084
8.12
8.092
8.064
8.044
8.08
8.052
8.008
8.02
8.032
8.036
8.032
8.028
8.04
8.016
8.004
8
8.016
7.932
7.824
7.856
7.964
8.288
8.668
9.24
9.924
10.256
10.012
9.396
8.944
8.54
8.008
7.824
7.872
7.996
8.048
8.084
8.104
8.164
8.16
8.104
8.096
8.128
8.16
8.128
8.108
8.132
8.14
8.156
8.116
8.148
8.172
8.152
8.136
8.172
8.2
8.164
8.16
8.188
8.232
8.2
8.192
8.192
8.252
8.244
8.236
8.244
8.272
8.288
8.256
8.28
8.316
8.348
8.312
8.32
8.356
8.4
8.392
8.404
8.42
8.504
8.5
8.5
8.544
8.6
8.628
8.648
8.664
8.716
8.764
8.776
8.816
8.844
8.896
8.912
8.896
8.972
9.02
8.984
8.964
8.996
9
8.908
8.872
8.804
8.784
8.704
8.608
8.564
8.516
8.456
8.376
8.34
8.308
8.292
8.228
8.196
8.228
8.22
8.156
8.148
8.168
8.192
8.136
8.12
8.144
8.152
8.16
8.14
8.152
8.168
8.132
8.116
8.12
8.168
8.136
8.124
8.116
8.152
8.156
8.112
8.116
8.136
8.148
8.136
8.108
8.12
8.16
8.112
8.092
8.14
8.128
8.124
8.1
8.108
8.12
8.12
8.072
8.092
8.128
8.096
8.088
8.084
8.104
8.088
8.068
8.06
8.064
8.088
8.052
8.048
8.06
8.064
8.048
8.04
8.072
8.084
8.076
8.028
8.052
8.08
8.072
8.036
8.048
8.068
8.056
8.04
8.028
8.06
8.056
8.02
8.008
8.036
8.06
8.024
8.016
8.024
8.056
8.02
8.004
8.032
8.044
8.04
8
8.012
8.036
7.992
8.012
8.032
8.052
8.02
8.008
8.02
8.04
8.02
8
7.996
8.036
8.04
8.008
8.004
8
8.032
8.032
8.02
8.06
8.096
8.104
8.08
8.124
8.112
8.12
8.128
8.18
8.18
8.16
8.104
8.072
8.084
8.06
8.044
8.032
8.044
8.056
8.016
7.96
7.98
7.988
7.976
7.948
8
8.004
7.968
7.972
7.98
7.98
7.908
7.784
7.844
7.988
8.26
8.708
9.22
9.908
10.272
9.964
9.372
8.872
8.408
7.952
7.744
7.892
7.992
8.032
8.064
8.1
8.12
8.072
8.06
8.06
8.072
8.064
8.056
8.072
8.084
8.092
8.052
8.096
8.104
8.096
8.08
8.06
8.116
8.124
8.112
8.096
8.132
8.164
8.128
8.12
8.156
8.18
8.164
8.164
8.188
8.22
8.196
8.196
8.248
8.28
8.288
8.256
8.284
8.332
8.36
8.332
8.372
8.396
8.44
8.428
8.48
8.524
8.58
8.58
8.604
8.656
8.712
8.704
8.724
8.776
8.864
8.848
8.848
8.88
8.928
8.956
8.94
8.94
8.96
8.94
8.872
8.816
8.768
8.72
8.596
8.548
8.508
8.464
8.36
8.32
8.3
8.288
8.224
8.168
8.16
8.152
8.156
8.096
8.088
8.096
8.1
8.06
8.068
8.076
8.092
8.036
8.068
8.096
8.084
8.072
8.052
8.088
8.1
8.084
8.052
8.068
8.1
8.104
8.084
8.084
8.104
8.088
8.08
8.104
8.12
8.092
8.064
8.072
8.1
8.092
8.068
8.036
8.088
8.068
8.072
8.024
8.056
8.064
8.048
8.032
8.036
8.08
8.056
8.02
8.024
8.06
8.04
8.016
8.032
8.052
8.04
8.028
8.004
8.036
8.048
8.028
8.032
8.024
8.052
8.012
8.012
8.012
8.032
8.028
7.996
8.032
8.04
7.992
7.972
8
8.048
8.028
7.992
7.996
8.016
8.016
8.008
8.012
8.02
8.024
8.016
7.992
8.028
8.028
8.016
7.992
8.032
8.044
8.016
8.004
8.032
8.044
8.04
8
8
8.04
8.02
8.004
8.012
8.036
8.024
8.016
7.992
8.02
8.024
7.992
8.016
8.028
8.064
8.016
8.02
8.028
8.044
8.044
8.008
8.028
8.052
8.06
8.048
8.076
8.108
8.108
8.088
8.124
8.156
8.168
8.132
8.136
8.156
8.136
8.052
8.06
8.072
8.092
8.056
8.016
8.04
8.044
7.992
7.972
8
8.012
7.996
7.968
7.984
8.016
8.024
7.96
7.944
7.856
7.864
7.944
8.16
8.584
9.12
9.72
10.208
10.12
9.52
8.996
8.528
8.076
7.808
7.84
7.944
8.052
8.136
8.104
8.108
8.092
8.124
8.116
8.084
8.068
8.096
8.124
8.088
8.108
8.12
8.136
8.088
8.116
8.14
8.148
8.124
8.108
8.12
8.176
8.156
8.128
8.18
8.164
8.168
8.16
8.188
8.196
8.2
8.2
8.24
8.232
8.264
8.224
8.268
8.332
8.316
8.296
8.316
8.372
8.408
8.4
8.412
8.472
8.516
8.54
8.552
8.608
8.632
8.648
8.676
8.732
8.784
8.8
8.816
8.868
8.928
8.952
8.928
8.968
8.996
9
8.972
8.944
8.92
8.9
8.804
8.752
8.712
8.652
8.532
8.48
8.44
8.408
8.336
8.256
8.244
8.228
8.188
8.112
8.132
8.128
8.136
8.096
8.092
8.108
8.124
8.08
8.092
8.076
8.112
8.06
8.048
8.088
8.104
8.088
8.048
8.084
8.116
8.096
8.048
8.088
8.108
8.1
8.092
8.088
8.112
8.092
8.096
8.08
8.108
8.096
8.076
8.072
8.108
8.136
8.064
8.064
8.08
8.108
8.068
8.032
8.08
8.072
8.064
8.056
8.06
8.072
8.06
8.044
8.052
8.064
8.06
8.028
8.04
8.064
8.072
8.036
8.036
8.044
8.052
8.04
8.024
8.04
8.048
8.016
8.028
8.044
8.048
8.02
7.98
8.02
8.068
8.02
8.028
8.016
8.04
8.04
8.016
8.016
8.02
8.036
8.004
8.016
8.028
8.048
8.028
8.012
8.048
8.04
8.004
8.004
8.012
8.04
8.016
7.976
8.02
8.024
8.036
8
8.012
8.04
8.02
8.008
8.004
8.04
8.032
8.008
8.012
8.028
8.044
8
7.992
7.992
8.036
7.996
7.996
8.032
8.056
8.04
7.996
8.008
8.024
8.024
8.012
8.02
8.044
8.02
8.012
8.052
8.032
8.052
8.024
8
8.036
8.06
8.052
8.044
8.108
8.176
8.136
8.084
8.096
8.16
8.172
8.16
8.168
8.16
8.14
8.076
8.076
8.088
8.084
8.048
8.036
8.032
8.036
8.008
7.976
8.008
8.008
8.012
7.972
7.992
8.028
8.008
7.972
8
7.904
7.824
7.868
8.032
8.356
8.82
9.352
10.008
10.284
9.888
9.28
8.824
8.344
7.92
7.816
7.9
8.024
8.084
8.08
8.092
8.104
8.132
8.084
8.06
8.08
8.104
8.104
8.076
8.072
8.132
8.124
8.1
8.104
8.096
8.108
8.1
8.12
8.136
8.152
8.136
8.136
8.168
8.188
8.172
8.16
8.172
8.224
8.204
8.152
8.228
8.244
8.252
8.236
8.276
8.296
8.312
8.312
8.328
8.368
8.38
8.38
8.412
8.46
8.504
8.508
8.496
8.572
8.628
8.66
8.652
8.704
8.748
8.776
8.796
8.84
8.9
8.9
8.912
8.956
8.992
9.016
8.972
8.964
9
8.944
8.88
8.82
8.756
8.708
8.616
8.524
8.484
8.432
8.384
8.32
8.256
8.248
8.2
8.144
8.148
8.148
8.124
8.088
8.108
8.096
8.092
8.08
8.084
8.096
8.08
8.064
8.064
8.084
8.084
8.072
8.06
8.088
8.076
8.072
8.052
8.076
8.108
8.084
8.052
8.072
8.088
8.088
8.06
8.064
8.092
8.096
8.056
8.06
8.076
8.084
8.076
8.06
8.056
8.08
8.052
8.072
8.052
8.088
8.06
8.02
8.052
8.068
8.024
8.02
8.036
8.044
8.032
8.008
8.036
8.032
8.02
8
8.012
8.048
8.024
8.012
8
8.016
8.024
8
7.98
8.004
8.016
8
8.004
8.004
8.036
8.004
7.992
8.016
8.016
8.004
7.956
8.004
8.012
8.004
7.984
7.972
8.012
8.016
7.984
7.968
7.996
7.996
7.996
7.988
7.996
7.996
8.004
7.964
7.992
8
8
7.988
7.988
8.004
8
7.988
7.988
8.004
8.02
7.992
7.988
7.992
8
8
7.98
8.004
8
7.996
7.98
8.012
8.012
7.988
7.96
7.992
8.012
8.004
7.952
7.984
8.024
8.004
7.976
7.976
7.988
8
7.972
7.984
8.028
8.024
8.04
8.056
8.112
8.12
8.072
8.036
8.104
8.164
8.168
8.124
8.1
8.104
8.056
8.008
8.02
8.028
8.016
7.988
8.012
7.996
7.972
7.932
7.916
7.94
7.936
7.944
7.952
7.924
7.968
7.952
7.924
7.86
7.772
7.828
7.916
8.2
8.656
9.164
9.816
10.216
10.024
9.404
8.888
8.412
7.972
7.78
7.836
7.948
8.036
8.076
8.056
8.064
8.06
8.052
8.032
8.016
8.056
8.064
8.032
8.02
8.064
8.072
8.068
8.036
8.052
8.076
8.068
8.044
8.084
8.092
8.08
8.088
8.1
8.096
8.112
8.14
8.116
8.148
8.16
8.136
8.14
8.184
8.212
8.192
8.18
8.22
8.272
8.26
8.256
8.3
8.324
8.344
8.372
8.4
8.424
8.452
8.472
8.508
8.572
8.596
8.624
8.66
8.708
8.76
8.76
8.792
8.852
8.888
8.92
8.936
8.96
8.984
8.968
8.956
8.952
8.924
8.856
8.784
8.756
8.692
8.592
8.52
8.46
8.4
8.348
8.276
8.236
8.216
8.16
8.136
8.112
8.12
8.112
8.072
8.04
8.084
8.064
8.04
8.04
8.044
8.064
8.02
8.028
8.024
8.044
8.056
8.06
8.032
8.048
8.056
8.048
8.024
8.06
8.032
8.02
8.012
8.052
8.044
8.04
8.016
8.048
8.064
8.032
8.024
8.044
8.044
8.036
8.032
8.008
8.028
8.028
8.024
7.996
8.044
8.024
7.992
7.996
8
8.04
8.008
7.98
8.004
8.008
8
7.976
7.996
8.008
7.972
7.976
7.972
8.008
7.976
7.964
7.984
7.988
7.988
7.96
7.956
8.004
7.972
7.976
7.956
7.98
7.988
7.956
7.952
7.968
7.984
7.972
7.976
7.968
7.988
7.944
7.956
7.976
7.996
7.968
7.952
7.944
7.98
7.956
7.96
7.972
7.984
7.98
7.964
7.976
7.972
7.98
7.968
7.952
7.988
7.992
7.952
7.952
7.972
8.004
7.956
7.96
7.976
7.992
7.988
7.968
7.976
7.984
7.984
7.992
7.96
7.98
7.976
7.976
7.972
7.988
7.992
7.98
7.968
7.968
8
7.984
7.964
7.984
8
7.968
7.968
7.984
8.008
8.032
8.06
8.08
8.096
8.052
8.052
8.08
8.14
8.16
8.112
8.072
8.1
8.088
8.036
8
8.008
8.032
8.012
8
7.976
7.98
7.94
7.928
7.928
7.952
7.916
7.928
7.948
7.936
7.948
7.936
7.864
7.832
7.792
7.88
8.072
8.48
9
9.608
10.14
10.168
9.604
9.052
8.588
8.128
7.824
7.812
7.884
7.992
8.096
8.084
8.06
8.068
8.088
8.064
8.056
8.044
8.064
8.068
8.052
8.08
8.076
8.104
8.064
8.072
8.112
8.116
8.076
8.088
8.112
8.148
8.12
8.112
8.116
8.16
8.136
8.144
8.156
8.188
8.184
8.168
8.204
8.208
8.216
8.244
8.256
8.296
8.308
8.288
8.284
8.328
8.392
8.368
8.4
8.432
8.484
8.496
8.532
8.588
8.62
8.632
8.672
8.72
8.784
8.776
8.82
8.86
8.912
8.912
8.932
8.968
8.976
9.028
9.004
8.98
8.968
8.928
8.856
8.764
8.736
8.676
8.564
8.484
8.448
8.404
8.332
8.264
8.248
8.236
8.184
8.124
8.116
8.128
8.108
8.104
8.064
8.08
8.072
8.08
8.048
8.044
8.052
8.06
8.024
8.068
8.088
8.048
8.044
8.068
8.076
8.068
8.048
8.056
8.088
8.064
8.064
8.068
8.088
8.064
8.052
8.056
8.08
8.072
8.036
8.056
8.06
8.076
8.032
8.04
8.04
8.068
8.04
8.028
8.032
8.052
8.024
8.032
8.044
8.044
8.032
8.024
8.028
8.056
8.028
7.98
8.02
8.032
8.048
8.004
8.016
8.008
8.024
8.012
7.976
8.016
8.02
8.004
8
8
8.02
7.976
7.992
8.008
8.012
7.976
7.992
7.972
8.016
7.992
7.988
7.972
8.008
7.996
7.976
7.988
8
7.992
7.976
8
7.988
8.028
7.968
7.96
8.004
8.028
7.992
7.984
7.988
8.024
8.02
7.984
8
7.996
8.008
7.976
7.968
7.996
7.992
8
7.996
8.016
8.008
7.976
7.98
8.012
8.04
8.004
8.008
8.02
8.016
8.008
7.964
8.016
8.012
7.984
8.008
8.016
7.996
8.012
8.004
8.008
7.992
8.032
8.008
7.976
7.992
8.024
7.992
8
8.032
8.076
8.084
8.1
8.1
8.088
8.052
8.112
8.164
8.172
8.148
8.096
8.108
8.116
8.076
8.032
8.032
8.056
8.044
8.012
7.984
7.988
7.968
7.948
7.96
7.96
7.972
7.956
7.932
7.96
7.992
7.956
7.904
7.828
7.82
7.9
8.056
8.404
8.912
9.5
10.096
10.224
9.74
9.16
8.684
8.192
7.848
7.8
7.892
8
8.068
8.092
8.076
8.076
8.064
8.096
8.072
8.04
8.064
8.076
8.08
8.06
8.084
8.108
8.088
8.072
8.084
8.116
8.096
8.08
8.104
8.124
8.148
8.124
8.124
8.144
8.172
8.168
8.156
8.184
8.212
8.184
8.208
8.216
8.236
8.228
8.26
8.26
8.308
8.312
8.288
8.32
8.368
8.412
8.396
8.416
8.488
8.524
8.528
8.576
8.612
8.68
8.672
8.716
8.76
8.8
8.828
8.868
8.904
8.96
8.964
8.972
9.008
9.06
9.052
9.008
8.976
8.956
8.888
8.824
8.74
8.684
8.612
8.528
8.436
8.412
8.372
8.292
8.224
8.228
8.204
8.136
8.116
8.124
8.128
8.1
8.076
8.088
8.092
8.088
8.056
8.052
8.072
8.084
8.032
8.056
8.06
8.076
8.016
8.052
8.076
8.092
8.032
8.052
8.064
8.108
8.064
8.068
8.064
8.092
8.064
8.068
8.076
8.084
8.076
8.044
8.036
8.088
8.088
8.048
8.044
8.052
8.084
8.032
8.032
8.052
8.064
8.056
8.056
8.06
8.06
8.028
8.032
8.052
8.044
8.004
8.016
8.016
8.044
8.04
8.008
7.996
8.016
8.036
8
7.992
8.02
8.028
8.004
7.992
7.996
8.024
8
7.984
8.016
8.036
8
7.984
8.016
8.044
8.004
7.984
7.996
8.016
8.016
7.992
7.98
8
8
8
8.008
7.984
8.02
7.988
7.976
8.012
8.028
7.992
7.968
8
8.04
8.004
7.972
8.004
8.016
7.996
7.984
7.988
8
8.012
7.98
8.012
8.012
8.024
7.988
7.984
7.98
8.02
7.996
7.988
7.988
8.032
8.008
7.968
7.992
8.016
8
8
8.012
8.016
8.008
7.98
8.008
8.016
8
7.992
8.012
8.02
8.024
7.976
7.996
8.048
8.1
8.076
8.096
8.112
8.104
8.064
8.1
8.16
8.18
8.168
8.1
8.104
8.12
8.056
8.032
8.044
8.06
8.052
8.012
7.98
7.992
7.996
7.972
7.952
7.968
7.996
7.96
7.956
7.968
7.984
7.968
7.924
7.888
7.828
7.856
7.992
8.348
8.856
9.428
10.024
10.232
9.84
9.256
8.764
8.276
7.876
7.804
7.888
7.98
8.072
8.112
8.072
8.064
8.076
8.1
8.06
8.056
8.076
8.068
8.084
8.068
8.06
8.088
8.096
8.08
8.1
8.116
8.112
8.1
8.096
8.136
8.148
8.096
8.108
8.148
8.156
8.152
8.152
8.172
8.212
8.156
8.2
8.208
8.26
8.224
8.244
8.268
8.3
8.312
8.296
8.332
8.4
8.408
8.404
8.432
8.5
8.52
8.536
8.56
8.608
8.52
8.688
8.712
8.748
8.808
8.828
8.856
8.928
8.968
8.972
9
9.032
9.064
9.052
9.024
8.996
8.972
8.9
8.836
8.78
8.712
8.64
8.556
8.488
8.436
8.396
8.288
8.268
8.228
8.224
8.16
8.132
8.136
8.14
8.1
8.088
8.072
8.096
8.076
8.06
8.068
8.072
8.052
8.056
8.052
8.072
8.056
8.052
8.044
8.08
8.104
8.044
8.024
8.048
8.092
8.06
8.048
8.056
8.084
8.056
8.072
8.064
8.056
8.064
8.044
8.064
8.076
8.08
8.04
8.024
8.064
8.084
8.04
8.02
8.048
8.088
8.032
8.024
8.024
8.068
8.028
8.012
8.048
8.056
8.016
7.992
8.016
8.044
8.028
8.004
8.004
8.016
8.028
7.984
7.992
7.988
8.024
8.008
7.992
7.988
8.012
7.996
8
7.968
8.024
7.972
7.988
8.008
8.04
7.988
7.98
7.988
8.028
8.004
7.988
7.98
8
7.996
7.976
7.984
7.992
8.004
7.984
7.964
8.008
8.012
7.964
7.952
7.98
8.016
8.004
7.964
7.98
7.996
7.972
7.976
7.984
8
7.972
7.968
7.98
8.008
7.984
7.964
7.968
8.008
8.02
7.968
7.976
7.996
8.008
7.968
7.952
7.996
8.028
7.996
7.956
7.992
8.032
7.988
7.968
8.004
8.024
8
7.964
7.98
8.032
8
7.984
7.972
8.004
8.024
7.988
7.984
8.04
8.072
8.068
8.084
8.124
8.096
8.064
8.056
8.156
8.204
8.152
8.096
8.108
8.112
8.072
8.012
8.008
8.056
8.064
7.988
7.972
8.008
7.988
7.932
7.94
7.984
7.988
7.952
7.928
7.976
8
7.98
7.904
7.856
7.832
7.856
7.984
8.328
8.848
9.388
10.016
10.24
9.856
9.284
8.768
8.288
7.896
7.8
7.9
7.964
8.056
8.116
8.06
8.02
8.08
8.092
8.084
8.028
8.072
8.088
8.064
8.02
8.052
8.068
8.088
8.068
8.064
8.084
8.108
8.056
8.064
8.108
8.148
8.112
8.112
8.14
8.192
8.14
8.132
8.172
8.204
8.176
8.184
8.216
8.236
8.224
8.216
8.272
8.316
8.28
8.264
8.308
8.368
8.396
8.38
8.416
8.484
8.544
8.524
8.54
8.608
8.676
8.692
8.708
8.768
8.824
8.824
8.852
8.904
8.976
8.984
8.988
9.028
9.068
9.06
9.012
9
8.976
8.944
8.86
8.776
8.728
8.664
8.572
8.48
8.452
8.42
8.312
8.252
8.228
8.24
8.18
8.112
8.148
8.136
8.136
8.064
8.076
8.092
8.092
8.052
8.036
8.092
8.088
8.056
8.06
8.092
8.08
8.032
8.036
8.064
8.104
8.06
8.036
8.092
8.096
8.056
8.064
8.052
8.084
8.08
8.052
8.064
8.096
8.072
8.048
8.02
8.088
8.092
8.056
8.044
8.084
8.104
8.064
8.016
8.056
8.084
8.028
8.044
8.052
8.08
8.032
8.004
8.032
8.056
8.048
8
8.028
8.048
8.04
8.004
8.016
8.032
8.052
8
8.004
8.016
8.048
8.016
7.996
8.02
8.04
8
7.976
8.008
8.02
7.992
7.944
7.988
8.036
8.008
7.984
7.98
8.016
8.024
7.992
7.972
8.024
8.012
7.988
7.98
8.008
8.024
7.984
7.956
7.996
8.028
7.988
7.988
8.02
8.04
8.008
7.976
8
8.012
8.012
7.968
7.984
8.032
8.004
7.992
8.008
8.008
8.012
7.988
7.992
8.024
8.044
7.968
7.98
7.976
8.036
7.996
7.972
8.016
8.008
8.028
7.992
7.972
8.052
8.02
7.968
8.032
8.044
8.008
8.016
8
8.036
8.032
8.004
7.972
8.044
8.1
8.084
8.088
8.112
8.136
8.112
8.072
8.156
8.192
8.172
8.136
8.128
8.136
8.08
8.012
8.044
8.076
8.064
8.024
7.992
8.016
8
7.964
7.956
7.98
7.984
7.968
7.96
7.976
8.004
7.972
7.932
7.9
7.86
7.832
7.928
8.224
8.704
9.232
9.856
10.24
10.06
9.46
8.916
8.452
7.996
7.836
7.876
7.948
8.064
8.116
8.108
8.088
8.112
8.12
8.1
8.064
8.068
8.1
8.096
8.068
8.092
8.12
8.1
8.08
8.108
8.132
8.116
8.072
8.12
8.16
8.156
8.104
8.12
8.156
8.2
8.152
8.112
8.176
8.212
8.204
8.168
8.212
8.252
8.256
8.248
8.268
8.312
8.312
8.3
8.328
8.396
8.4
8.392
8.424
8.476
8.536
8.52
8.52
8.608
8.672
8.684
8.7
8.772
8.832
8.804
8.836
8.9
8.98
8.956
8.972
9.036
9.084
9.052
9
9.028
9.012
8.968
8.868
8.804
8.752
8.68
8.596
8.512
8.452
8.428
8.336
8.288
8.272
8.24
8.168
8.104
8.16
8.164
8.096
8.072
8.068
8.124
8.088
8.056
8.068
8.092
8.064
8.056
8.06
8.08
8.068
8.052
8.036
8.068
8.084
8.048
8.036
8.056
8.096
8.072
8.028
8.06
8.092
8.072
8.044
8.08
8.08
8.08
8.044
8.056
8.096
8.072
8.032
8.052
8.1
8.08
8.048
8.032
8.072
8.096
8.064
8.028
8.076
8.064
8.04
8.016
8.064
8.068
8.024
8
8.052
8.064
8.044
8.004
8.028
8.048
8.064
8.024
8.02
8.044
8.072
8.024
7.988
8.024
8.052
8.008
8.004
8.028
8.06
8.012
7.992
8.032
8.068
8.032
7.984
8.024
8.036
8.024
8
7.996
8.032
8.052
8.016
8.012
8.012
8.044
8.012
8
8.044
8.048
8.016
7.988
8.028
8.044
8.024
8
8.02
8.04
8.048
7.988
8.024
8.044
8.048
8.004
8.02
8.02
8.036
7.988
8.032
8.064
8.056
8.02
8.012
8.036
8.06
8.024
7.988
8.028
8.048
8.048
8.024
8.028
8.064
8.02
8.028
8.044
8.044
8.056
8.008
8.016
8.036
8.064
8.044
8.052
8.112
8.14
8.108
8.072
8.092
8.16
8.172
8.152
8.164
8.156
8.136
8.076
8.096
8.104
8.088
8.044
8.048
8.092
8.064
8.012
7.992
8.032
8.032
8
7.992
8.024
8.044
8.02
7.996
8.016
7.96
7.828
7.84
7.964
8.228
8.596
9.144
9.828
10.28
10.14
9.544
9.068
8.66
8.132
7.824
7.848
7.984
8.056
8.072
8.096
8.12
8.156
8.1
8.064
8.108
8.12
8.116
8.08
8.128
8.168
8.12
8.092
8.108
8.14
8.136
8.124
8.14
8.172
8.14
8.144
8.176
8.168
8.188
8.152
8.18
8.208
8.232
8.18
8.216
8.24
8.268
8.256
8.236
8.276
8.316
8.308
8.34
8.36
8.396
8.372
8.396
8.456
8.496
8.5
8.508
8.572
8.616
8.652
8.632
8.7
8.76
8.82
8.804
8.856
8.92
8.956
8.972
8.984
9.04
9.06
9.064
9.064
9.1
9.072
9.004
8.992
8.916
8.888
8.784
8.696
8.624
8.564
8.516
8.408
8.372
8.312
8.284
8.24
8.176
8.18
8.164
8.12
8.092
8.1
8.136
8.116
8.056
8.088
8.128
8.068
8.076
8.08
8.108
8.108
8.08
8.084
8.112
8.108
8.064
8.096
8.104
8.092
8.068
8.072
8.104
8.124
8.052
8.072
8.072
8.112
8.076
8.064
8.084
8.104
8.108
8.072
8.096
8.104
8.088
8.048
8.072
8.1
8.072
8.04
8.068
8.092
8.096
8.052
8.048
8.076
8.076
8.052
8.024
8.068
8.08
8.048
8.04
8.06
8.048
8.04
8.008
8.052
8.068
8.044
8.008
8.044
8.064
8.052
8.036
8.052
8.04
8.068
8.028
8.032
8.052
8.056
8.036
8.02
8.048
8.068
8.008
8.012
8.036
8.056
8.008
8.004
8.028
8.052
8.056
8.004
8.024
8.044
8.052
8.012
8.02
8.048
8.052
8
8.004
8.056
8.064
8.048
8.068
8.152
8.16
8.116
8.084
8.116
8.184
8.18
8.172
8.168
8.148
8.124
8.08
8.084
8.088
8.092
8.048
8.064
8.072
8.044
7.988
7.98
8.024
8.028
8.004
7.996
8.008
8.048
8.004
8.008
8.008
7.936
7.832
7.896
8.032
8.376
8.872
9.396
10.056
10.368
9.984
9.308
8.868
8.432
8.016
7.84
7.912
8.036
8.096
8.116
8.128
8.144
8.16
8.108
8.116
8.136
8.148
8.1
8.084
8.132
8.16
8.152
8.12
8.152
8.156
8.172
8.132
8.156
8.172
8.152
8.16
8.14
8.176
8.188
8.16
8.172
8.228
8.248
8.2
8.228
8.236
8.268
8.264
8.252
8.272
8.332
8.336
8.328
8.36
8.388
8.416
8.392
8.436
8.496
8.512
8.524
8.548
8.632
8.68
8.656
8.704
8.768
8.8
8.832
8.848
8.912
8.976
8.964
8.98
9.02
9.056
9.064
9.004
9
9.012
8.936
8.852
8.784
8.748
8.684
8.568
8.52
8.476
8.436
8.34
8.28
8.264
8.24
8.18
8.152
8.148
8.152
8.1
8.08
8.116
8.116
8.092
8.048
8.076
8.084
8.1
8.04
8.04
8.06
8.072
8.06
8.052
8.068
8.092
8.048
8.056
8.056
8.104
8.068
8.06
8.076
8.104
8.068
8.04
8.06
8.08
8.072
8.048
8.056
8.08
8.096
8.04
8.068
8.068
8.064
8.056
8.052
8.072
8.072
8.036
8.02
8.064
8.088
8.044
8.02
8.052
8.068
8.04
7.992
8.032
8.064
8.04
8.02
8.016
8.06
8.04
7.996
8.012
8.036
8.044
7.984
8.004
8.028
8.032
8.024
8.004
8.024
8.036
8.02
8.016
8.02
8.028
8.016
7.992
8.028
8.036
8.028
7.98
8.02
8.044
8.032
7.984
8.004
8.008
8.004
7.996
7.984
8.008
8.04
8.008
7.992
8.004
8.036
8.004
7.996
8.02
8.032
8
7.972
7.996
8.016
8.024
7.96
8
8.036
8.008
7.992
7.988
8.004
8.04
7.988
7.996
8.012
8.028
7.976
7.996
8.044
8.04
8.02
8.032
8.08
8.152
8.104
8.084
8.104
8.108
8.156
8.152
8.188
8.192
8.14
8.1
8.092
8.092
8.064
8.04
8.048
8.084
8.076
8.032
7.972
8.004
8
7.976
7.964
7.996
8.012
8
7.98
7.996
8.02
7.996
7.912
7.856
7.892
8.016
8.276
8.712
9.28
9.944
10.308
10.036
9.452
8.96
8.448
7.96
7.812
7.96
8.024
8.084
8.128
8.14
8.116
8.076
8.112
8.132
8.092
8.048
8.088
8.124
8.104
8.08
8.076
8.072
8.112
8.108
8.056
8.132
8.14
8.096
8.132
8.168
8.152
8.12
8.152
8.188
8.192
8.184
8.164
8.168
8.216
8.244
8.204
8.22
8.252
8.268
8.264
8.284
8.312
8.332
8.32
8.368
8.392
8.42
8.436
8.444
8.528
8.58
8.572
8.576
8.656
8.724
8.728
8.756
8.78
8.852
8.9
8.908
8.952
8.996
9.024
9.004
9.016
9.056
9.04
8.996
8.932
8.92
8.864
8.756
8.688
8.64
8.568
8.504
8.408
8.352
8.332
8.26
8.2
8.188
8.168
8.144
8.104
8.104
8.112
8.092
8.044
8.028
8.096
8.088
8.044
8.016
8.076
8.072
8.068
8.044
8.064
8.088
8.064
8.032
8.06
8.072
8.06
8.024
8.056
8.084
8.06
8.024
8.036
8.064
8.068
8.052
8.028
8.052
8.084
8.048
8.052
8.064
8.076
8.052
8.032
8.044
8.072
8.048
8.04
8.06
8.072
8.056
8.008
8.036
8.056
8.06
8.036
8.016
8.04
8.04
8.032
8.016
8.036
8.048
8
8
8.024
8.044
7.996
7.992
8.02
8.052
8.008
7.984
8.004
8.012
8.008
7.984
7.98
8.016
8.004
7.996
7.988
8.012
8.008
7.98
7.988
8.028
8.028
8.012
7.984
8.016
8.044
8
7.984
7.988
8.016
8.008
7.992
8.008
8.028
8.008
7.98
8.004
8.016
8.02
7.98
7.964
8.028
8.012
8
7.968
8.008
8.036
8
7.976
8.012
8.028
8.008
7.972
8.012
8.04
7.988
8
8.016
8.032
8.024
8
8.008
8.04
8.024
7.976
7.98
8.024
8.028
8.008
8.004
8.02
8.024
8.024
7.992
8.04
8.032
8
7.996
8.032
8.044
8.016
7.996
8.024
8.032
8.028
8.004
8.008
8.044
8.044
8.004
7.988
8.04
8.028
8.016
8.024
8.044
8.036
8.02
8
8.088
8.112
8.104
8.116
8.084
8.088
8.084
8.136
8.18
8.212
8.164
8.112
8.112
8.096
8.06
8.024
8.044
8.084
8.044
8.02
7.992
8.012
8
7.948
7.952
7.984
7.996
7.992
7.956
7.976
7.996
7.988
7.892
7.848
7.876
7.956
8.2
8.628
9.18
9.84
10.252
10.112
9.524
8.992
8.524
8.04
7.84
7.94
7.992
8.024
8.1
8.152
8.108
8.076
8.068
8.112
8.068
8.06
8.084
8.12
8.064
8.06
8.068
8.092
8.112
8.1
8.052
8.096
8.132
8.104
8.088
8.132
8.148
8.124
8.124
8.16
8.168
8.164
8.136
8.184
8.204
8.192
8.2
8.204
8.26
8.264
8.256
8.248
8.296
8.312
8.316
8.332
8.368
8.416
8.404
8.436
8.5
8.564
8.548
8.564
8.66
8.7
8.724
8.708
8.78
8.852
8.88
8.892
8.94
8.988
9.016
9.024
9.052
9.08
9.064
9.036
8.988
8.988
8.944
8.848
8.768
8.7
8.672
8.592
8.476
8.432
8.404
8.328
8.256
8.24
8.232
8.16
8.116
8.132
8.152
8.096
8.064
8.072
8.096
8.068
8.056
8.032
8.084
8.092
8.048
8.052
8.072
8.092
8.064
8.04
8.064
8.072
8.064
8.036
8.092
8.104
8.076
8.036
8.08
8.092
8.088
8.048
8.052
8.068
8.08
8.048
8.032
8.068
8.072
8.064
8.044
8.08
8.088
8.068
8.04
8.072
8.068
8.056
8.012
8.036
8.084
8.06
8
8.032
8.056
8.056
8.02
8.036
8.048
8.052
8.02
8.028
8.06
8.056
8.008
8.012
8.048
8.048
8.008
7.992
8.032
8.056
8.024
8
8.008
8.036
8.004
8.008
8.024
8.048
8.032
7.98
8.02
8.04
8.02
7.988
7.996
8.028
8.048
7.996
7.984
8.02
8.024
8
7.976
8.024
8.048
8.016
8.012
8.016
8.008
8.004
7.996
8.004
8.036
8.036
7.98
7.996
8.036
8.024
8
7.976
8.032
8.044
8.028
8.004
8.032
8.036
8.02
7.984
8.012
8.056
8.032
8.012
8.024
8.052
8.012
7.996
8
8.032
8.06
8.004
7.992
8.032
8.028
8
7.996
8.028
8.036
8.008
8.012
8.04
8.048
8.012
7.984
8.02
8.052
8.032
7.984
7.996
8.04
8.032
8.012
8
8.048
8.032
8
7.984
8.04
8.024
8.028
8.064
8.128
8.144
8.108
8.052
8.088
8.168
8.148
8.148
8.14
8.156
8.12
8.068
8.056
8.076
8.052
8.024
8.052
8.064
8.02
7.984
7.984
7.984
7.988
7.968
7.96
7.972
8.024
7.976
7.96
7.988
7.968
7.856
7.8
7.904
8.116
8.46
8.964
9.608
10.196
10.256
9.7
9.144
8.72
8.204
7.836
7.84
8
8.076
8.076
8.084
8.096
8.12
8.076
8.064
8.068
8.072
8.064
8.052
8.08
8.12
8.092
8.064
8.064
8.108
8.096
8.056
8.108
8.124
8.112
8.1
8.096
8.14
8.152
8.124
8.14
8.148
8.18
8.148
8.168
8.216
8.216
8.2
8.22
8.24
8.276
8.284
8.26
8.304
8.344
8.344
8.332
8.368
8.424
8.436
8.46
8.488
8.544
8.592
8.588
8.62
8.708
8.76
8.772
8.768
8.852
8.924
8.9
8.924
8.976
9.012
9.052
9.048
9.056
9.076
9.016
8.96
8.94
8.9
8.808
8.724
8.644
8.584
8.54
8.436
8.372
8.356
8.28
8.248
8.188
8.164
8.156
8.128
8.108
8.084
8.096
8.08
8.036
8.064
8.068
8.044
8.048
8.036
8.072
8.052
8.052
8.032
8.036
8.048
8.064
8.024
8.048
8.056
8.048
8.036
8.064
8.08
8.04
8.032
8.048
8.072
8.04
8.044
8.052
8.064
8.04
8.024
8.04
8.048
8.056
8.068
8.036
8.048
8.056
8.056
8.028
8.04
8.072
8.024
8.012
8.024
8.048
8.048
8
7.992
8.036
8.032
7.968
8.012
8.048
8.008
7.968
8.008
8.044
8.004
7.988
8.008
8.032
7.996
7.988
7.996
8.012
8.036
8
7.98
8.016
8.016
8.012
7.984
7.992
8.016
7.992
7.992
8.004
8.016
8.008
7.976
7.972
8.024
8
7.996
7.976
8.012
8
7.992
7.976
8.008
8.012
7.988
7.972
7.988
8.016
7.976
7.984
8.016
8.02
7.984
7.976
7.98
8.024
8.004
7.972
8
7.992
8.012
7.988
7.988
7.988
8.004
8.004
7.984
8.012
7.992
7.984
7.984
7.996
8.012
7.996
7.996
7.996
8.044
8.004
7.988
8
8.012
8.032
8
7.996
8.028
8.016
7.98
8.004
8.04
8.012
8
7.996
8.028
8.016
8
7.98
8.004
8.052
8.04
8
7.996
8.028
8.052
8.068
8.076
8.12
8.116
8.088
8.088
8.12
8.164
8.148
8.148
8.144
8.128
8.076
8.044
8.056
8.064
8.048
8.036
8.02
8.044
8
7.948
7.964
7.976
7.964
7.944
7.968
8
7.976
7.96
7.976
7.972
7.904
7.808
7.856
8.016
8.34
8.8
9.336
10
10.32
9.936
9.328
8.868
8.4
7.924
7.776
7.936
8.044
8.064
8.076
8.088
8.148
8.084
8.06
8.06
8.084
8.084
8.076
8.088
8.1
8.096
8.088
8.06
8.08
8.104
8.08
8.08
8.116
8.152
8.132
8.128
8.104
8.144
8.148
8.124
8.16
8.188
8.164
8.188
8.192
8.216
8.2
8.2
8.244
8.276
8.272
8.252
8.284
8.34
8.372
8.356
8.356
8.412
8.464
8.48
8.48
8.524
8.588
8.608
8.632
8.68
8.74
8.772
8.796
8.848
8.904
8.92
8.948
8.972
9.024
9.076
9.068
9.048
9.076
9.076
9.012
8.976
8.916
8.896
8.788
8.696
8.656
8.592
8.476
8.4
8.38
8.36
8.268
8.192
8.18
8.188
8.176
8.128
8.104
8.112
8.112
8.1
8.076
8.072
8.1
8.044
8.048
8.048
8.084
8.048
8.024
8.048
8.088
8.068
8.048
8.04
8.096
8.072
8.064
8.052
8.064
8.056
8.052
8.08
8.076
8.08
8.056
8.06
8.1
8.108
8.06
8.024
8.068
8.108
8.06
8.02
8.044
8.092
8.072
8.064
8.064
8.076
8.06
8.068
8.052
8.072
8.056
8.028
8.024
8.064
8.048
8.032
8
8.028
8.044
8.032
8.004
8.032
8.064
8.024
8.02
8.02
8.056
8.02
8.004
8.032
8.064
8.024
8.012
8.008
8.052
8.052
8.004
8.008
8.024
8.06
8.024
8.004
8.004
8.056
8
7.996
8.036
8.048
8.004
7.992
8.012
8.048
8.008
7.992
8.012
8.044
8.012
7.996
7.992
8.012
8.028
7.984
8.008
8.036
8.028
8.016
7.988
8.028
8.036
8
7.996
8.02
8.048
8.016
7.98
8.008
8.036
8.028
8
8.028
8.02
8.008
8.02
8.016
8.02
8.016
7.996
7.996
8.032
8.008
8
7.984
8.012
8.044
8.004
7.984
7.996
8.048
8.028
8
7.992
8.048
8.02
7.996
8.028
8.036
8.024
7.984
7.992
8.02
8.04
7.984
7.984
8.016
8.012
7.984
8.008
8.056
8.076
8.092
8.088
8.08
8.088
8.088
8.136
8.176
8.176
8.12
8.084
8.088
8.104
8.032
8.004
8.028
8.04
8.032
8
7.984
7.972
7.972
7.96
7.944
7.968
7.984
7.96
7.944
7.964
7.996
7.944
7.876
7.804
7.876
7.972
8.224
8.692
9.22
9.872
10.272
10.06
9.452
8.92
8.464
7.984
7.792
7.896
7.96
8.032
8.072
8.108
8.08
8.016
8.052
8.092
8.068
8.036
8.028
8.072
8.052
8.056
8.068
8.068
8.08
8.064
8.072
8.084
8.092
8.088
8.104
8.132
8.128
8.124
8.124
8.136
8.18
8.164
8.112
8.176
8.192
8.184
8.196
8.192
8.244
8.232
8.252
8.26
8.292
8.3
8.292
8.312
8.384
8.408
8.384
8.38
8.464
8.536
8.524
8.544
8.604
8.68
8.672
8.708
8.764
8.836
8.852
8.84
8.928
8.984
8.98
8.98
9.04
9.08
9.068
9.012
9.024
8.98
8.952
8.86
8.8
8.732
8.672
8.564
8.512
8.436
8.412
8.312
8.268
8.232
8.256
8.18
8.124
8.12
8.12
8.096
8.076
8.068
8.088
8.076
8.06
8.068
8.088
8.068
8.064
8.056
8.076
8.088
8.06
8.04
8.08
8.1
8.056
8.06
8.084
8.08
8.084
8.056
8.08
8.112
8.068
8.076
8.076
8.096
8.056
8.056
8.08
8.092
8.076
8.052
8.06
8.076
8.096
8.048
8.036
8.064
8.072
8.064
8.044
8.04
8.096
8.06
8.044
8.06
8.076
8.06
8.02
8.028
8.072
8.032
8.008
8.012
8.044
8.044
8.024
8.02
8.048
8.02
8.004
7.996
8.036
8.032
8.028
8.012
8.016
8.052
8.016
8.004
8.032
8.06
8.024
7.984
8.024
8.028
8.012
7.992
7.984
8.028
8.012
8.004
8.004
8.016
8
7.992
8.004
8.032
8.036
7.996
8
8.02
8.048
8.008
7.976
7.984
8.028
8.012
7.996
8.016
8.032
8.004
7.984
8.008
8.044
8.028
8.004
8.004
8.016
8.04
7.988
7.968
7.984
8.02
8.016
7.976
7.992
8.02
7.992
7.996
7.996
8.024
8.012
7.996
8.008
8.032
8.016
7.984
7.988
8.028
8.016
8
8
8.02
8.032
8.004
7.992
8.004
8.024
8.016
7.992
8.024
8.032
7.984
7.972
8.004
8.068
8.076
8.064
8.104
8.12
8.096
8.088
8.112
8.164
8.196
8.152
8.108
8.112
8.1
8.04
8.04
8.06
8.076
8.004
7.992
7.996
8.012
7.956
7.94
7.94
7.996
7.972
7.936
7.956
7.972
7.988
7.948
7.94
7.876
7.808
7.852
8.008
8.364
8.828
9.38
10.028
10.312
9.956
9.3
8.8
8.352
7.92
7.824
7.896
8.016
8.1
8.108
8.08
8.104
8.108
8.084
8.04
8.064
8.1
8.076
8.032
8.072
8.084
8.072
8.068
8.032
8.1
8.124
8.1
8.084
8.116
8.14
8.12
8.096
8.14
8.168
8.14
8.136
8.152
8.196
8.176
8.172
8.192
8.236
8.248
8.212
8.228
8.252
8.3
8.28
8.304
8.324
8.376
8.36
8.38
8.424
8.476
8.48
8.484
8.556
8.624
8.644
8.644
8.692
8.764
8.776
8.824
8.864
8.92
8.944
8.972
9.012
9.028
9.068
9.064
9.048
9.06
9.032
8.988
8.904
8.884
8.844
8.724
8.608
8.576
8.528
8.432
8.356
8.324
8.292
8.208
8.18
8.152
8.164
8.152
8.068
8.096
8.1
8.096
8.06
8.028
8.08
8.08
8.06
8.032
8.032
8.072
8.064
8.044
8.052
8.072
8.048
8.056
8.052
8.048
8.048
8.052
8.064
8.076
8.064
8.04
8.032
8.068
8.088
8.06
8.04
8.056
8.08
8.044
8.04
8.052
8.088
8.04
8.048
8.08
8.1
8.06
8.032
8.056
8.072
8.072
8.016
8.02
8.028
8.044
8.048
8.02
8.032
8.028
8.028
8.004
8.016
8.02
8.02
7.984
8.024
8.044
8.004
7.98
8.012
8.044
8.032
7.984
8.012
8.024
8
7.996
8.012
8.024
8
8.008
8.004
8.012
8.012
7.988
8
7.996
8.04
8
7.968
7.996
8.04
8.012
7.984
8.004
7.996
8.016
7.992
8.024
8.032
8.012
8.004
7.988
8.048
8.004
7.996
8
8.032
8.012
7.98
7.992
8.016
8.04
8.012
7.992
8.036
8.024
8.004
8.004
8.028
8.056
8.004
7.988
8.008
8.048
7.996
8.012
8.008
8.016
8.04
8.012
8.008
8.016
8.048
8.016
8
8.032
8.036
8.028
8.004
8.028
8.056
8.028
8.052
8.084
8.14
8.108
8.052
8.068
8.12
8.164
8.184
8.16
8.128
8.14
8.08
8.064
8.076
8.076
8.036
8.032
8.06
8.068
8.016
7.968
8.004
8.012
7.984
7.98
7.98
8.008
8.004
7.98
8.024
7.984
7.896
7.824
7.916
8.096
8.436
8.948
9.536
10.216
10.304
9.788
9.224
8.816
8.348
7.928
7.808
7.92
8.04
8.088
8.112
8.124
8.14
8.104
8.092
8.12
8.096
8.108
8.088
8.088
8.116
8.124
8.116
8.116
8.132
8.144
8.128
8.132
8.132
8.148
8.144
8.124
8.172
8.192
8.148
8.16
8.196
8.22
8.196
8.192
8.216
8.248
8.252
8.24
8.256
8.272
8.324
8.296
8.288
8.332
8.38
8.376
8.38
8.444
8.472
8.472
8.496
8.544
8.616
8.62
8.644
8.708
8.756
8.792
8.8
8.872
8.916
8.956
8.976
9
9.06
9.088
9.072
9.092
9.104
9.104
9.048
8.988
8.96
8.92
8.808
8.724
8.672
8.624
8.528
8.42
8.376
8.36
8.288
8.244
8.204
8.212
8.172
8.144
8.14
8.148
8.132
8.096
8.096
8.124
8.112
8.084
8.076
8.088
8.096
8.08
8.088
8.096
8.12
8.1
8.092
8.112
8.108
8.088
8.08
8.112
8.124
8.092
8.056
8.092
8.104
8.1
8.1
8.064
8.08
8.108
8.08
8.044
8.084
8.1
8.092
8.076
8.072
8.084
8.06
8.048
8.072
8.088
8.052
8.064
8.044
8.088
8.044
8.044
8.04
8.068
8.064
8.056
8.052
8.06
8.06
8.024
8.024
8.044
8.076
8.032
8.02
8.028
8.064
8.04
8.016
8.024
8.032
8.024
8.032
8.012
8.024
8.024
8
8.032
8.02
8.036
7.996
8.012
8.024
8.048
8.012
8.012
8.044
8.056
8.004
8
8.016
8.024
8.028
8.024
8.008
8.028
8.024
7.992
8.032
8.044
8.036
8.004
8.02
8.072
8.108
8.084
8.088
8.12
8.116
8.108
8.096
8.156
8.176
8.172
8.136
8.1
8.112
8.084
8.04
8.048
8.072
8.056
8.016
8.036
8.04
8.02
7.944
7.948
7.968
7.976
7.948
7.94
7.952
7.98
7.968
7.968
7.92
7.844
7.804
7.888
8.112
8.532
9.032
9.6
10.208
10.272
9.736
9.124
8.676
8.212
7.824
7.812
7.944
8.032
8.084
8.092
8.068
8.08
8.088
8.052
8.036
8.068
8.072
8.028
8.028
8.056
8.084
8.068
8.036
8.056
8.084
8.056
8.068
8.06
8.084
8.076
8.088
8.08
8.124
8.12
8.104
8.104
8.144
8.152
8.136
8.144
8.176
8.188
8.2
8.192
8.196
8.256
8.248
8.248
8.292
8.308
8.3
8.328
8.368
8.436
8.428
8.436
8.476
8.512
8.6
8.596
8.624
8.704
8.752
8.76
8.792
8.844
8.892
8.896
8.94
8.972
9.004
8.996
8.972
8.992
8.984
8.924
8.84
8.804
8.748
8.672
8.592
8.496
8.44
8.392
8.324
8.26
8.204
8.18
8.116
8.088
8.084
8.088
8.04
8
8.024
8.06
8.024
7.996
8
8.012
8.008
7.992
7.996
8.004
7.996
7.988
7.984
8.008
8.004
7.964
7.988
8.004
8.004
7.976
7.976
8.02
8.016
8.008
7.992
7.984
8.04
8
8.004
8.012
8.036
8
7.988
8.024
8.02
8.004
7.988
7.996
8.016
8.016
7.96
7.964
7.992
8.024
7.964
7.944
7.988
7.992
7.996
7.952
7.968
8.008
7.976
7.976
7.996
8
7.96
7.948
7.96
7.996
7.972
7.956
7.94
7.956
7.976
7.96
7.948
7.952
7.956
7.936
7.94
7.956
7.952
7.92
7.916
7.936
7.984
7.932
7.904
7.928
7.972
7.948
7.92
7.932
7.956
7.96
7.92
7.948
7.94
7.948
7.928
7.952
7.968
7.94
7.936
7.932
7.964
7.984
7.944
7.932
7.944
7.984
7.96
7.94
7.96
7.98
7.944
7.94
7.952
7.964
7.948
7.952
7.948
7.948
7.952
7.916
7.928
7.968
7.968
7.948
7.936
7.94
7.984
7.964
7.932
7.94
7.96
7.96
7.932
7.952
7.972
7.948
7.928
7.952
7.972
7.932
7.94
7.948
7.948
7.98
7.944
7.964
8.024
8.048
8.044
8.032
8.028
8.044
8.016
8.064
8.124
8.116
8.052
8.024
8.032
8.02
7.988
7.968
7.988
7.992
7.988
7.96
7.94
7.912
7.92
7.908
7.912
7.912
7.924
7.908
7.888
7.932
7.94
7.876
7.792
7.772
7.856
7.992
8.312
8.832
9.416
10.052
10.236
9.8
9.216
8.72
8.24
7.836
7.788
7.912
7.968
8.02
8.068
8.072
8.032
8.004
8.024
8.036
8.012
8
8.008
8.04
8.016
8.008
8.012
8.036
8.008
8.016
8.024
8.064
8.048
8.032
8.04
8.08
8.092
8.036
8.06
8.096
8.12
8.1
8.084
8.112
8.14
8.148
8.12
8.168
8.184
8.172
8.196
8.22
8.236
8.248
8.236
8.276
8.32
8.348
8.348
8.384
8.416
8.492
8.508
8.52
8.576
8.608
8.644
8.688
8.732
8.8
8.788
8.84
8.9
8.932
8.944
8.952
9.004
9.036
9.012
8.948
8.952
8.932
8.876
8.804
8.728
8.668
8.592
8.504
8.416
8.364
8.336
8.264
8.196
8.188
8.18
8.104
8.06
8.088
8.084
8.068
8.032
8.032
8.052
8.028
8.024
8.036
8.036
8.02
7.996
8.012
8.028
8.04
8
7.996
8.032
8.052
8.02
8.016
8.008
8.052
8.044
8
8.04
8.04
8.032
8.004
8.036
8.036
8.028
8.008
8.012
8.028
8.016
8.008
8.012
8.032
8.036
8.032
7.988
8.036
8.036
8.012
7.992
8.012
8.036
8.02
7.996
8.016
8.036
8.004
7.98
7.992
8.024
7.992
7.968
7.972
7.992
8.008
7.96
7.972
7.98
7.968
7.976
7.952
7.984
7.98
7.964
7.968
7.996
8
7.964
7.936
7.984
8.012
7.968
7.94
7.952
7.98
7.968
7.96
7.952
7.984
7.972
7.972
7.968
7.984
7.976
7.94
7.96
7.98
7.992
7.976
7.956
7.984
7.988
7.98
7.94
7.976
8
7.992
7.964
7.956
7.98
7.976
7.948
7.984
8.004
7.976
7.964
7.964
7.996
7.984
7.976
7.972
7.988
8.008
7.972
7.956
7.988
8.008
7.996
7.964
8
8.016
7.98
7.952
8
8
7.976
7.968
7.968
7.992
7.984
7.932
7.976
7.964
7.996
7.976
7.964
8
7.996
7.98
7.96
7.976
7.996
7.984
7.96
8.004
8.02
8.008
7.952
7.992
8.036
7.996
7.948
7.98
8.008
8.004
7.972
7.984
7.996
8
7.976
8.004
8.056
8.084
8.084
8.06
8.056
8.096
8.08
8.124
8.136
8.16
8.108
8.06
8.064
8.052
8.032
8
8.024
8.032
8.008
7.964
7.956
7.96
7.944
7.92
7.936
7.956
7.984
7.92
7.932
7.952
7.964
7.912
7.832
7.792
7.872
8.012
8.344
8.868
9.436
10.072
10.288
9.876
9.312
8.784
8.3
7.884
7.816
7.936
8
8.044
8.088
8.1
8.092
8.02
8.044
8.064
8.044
8.02
8.056
8.056
8.052
8.02
8.068
8.104
8.06
8.064
8.056
8.112
8.104
8.084
8.084
8.112
8.116
8.112
8.092
8.108
8.144
8.136
8.132
8.164
8.184
8.168
8.164
8.196
8.236
8.232
8.228
8.228
8.268
8.272
8.276
8.336
8.356
8.38
8.4
8.432
8.468
8.504
8.504
8.536
8.616
8.66
8.664
8.708
8.784
8.848
8.828
8.86
8.9
8.956
8.984
8.984
9.012
9.044
9.056
9.016
8.98
8.976
8.916
8.852
8.812
8.76
8.676
8.584
8.48
8.456
8.392
8.324
8.26
8.244
8.212
8.168
8.14
8.12
8.124
8.076
8.068
8.084
8.076
8.04
8.032
8.032
8.08
8.06
8.012
8.036
8.072
8.08
8.028
8.024
8.06
8.056
8.048
8.044
8.048
8.06
8.048
8.02
8.056
8.08
8.048
8.028
8.06
8.088
8.068
8.044
8.048
8.052
8.056
8.056
8.032
8.064
8.052
8.052
8.032
8.056
8.048
8.048
8.004
8.048
8.052
8.02
7.98
8.02
8.032
8.04
8
8.004
8.032
8.004
8.008
8.008
8.024
8.004
8.008
8.004
7.992
8.012
7.98
7.996
8.008
8.016
8.004
7.972
7.984
8.032
7.976
7.968
7.96
8.008
7.992
7.956
7.984
8
7.98
7.964
8
7.988
7.98
7.964
7.968
7.992
7.992
7.968
7.964
7.984
8.008
7.98
7.964
7.984
8
7.988
7.968
7.996
7.988
7.968
7.956
8.004
8.02
7.988
7.96
7.98
7.992
7.988
7.976
7.964
7.984
7.988
7.98
7.976
7.972
8.004
7.988
7.956
8.008
7.996
7.988
7.964
7.984
8.012
7.984
7.936
7.984
8.02
7.988
7.984
7.988
7.988
8
7.972
7.988
7.992
8.008
7.972
7.968
7.996
8.024
7.968
7.96
8.008
8.028
7.992
7.968
8
8.016
7.988
7.992
7.984
8.02
8.008
7.98
7.98
7.984
8
7.976
8.02
8.064
8.064
8.072
8.084
8.068
8.084
8.08
8.124
8.172
8.164
8.112
8.06
8.088
8.052
8.012
8.024
8.04
8.044
8.008
7.972
7.964
7.976
7.944
7.936
7.916
7.98
7.996
7.968
7.936
7.96
7.992
7.956
7.876
7.8
7.872
7.996
8.304
8.788
9.376
9.988
10.284
9.956
9.388
8.856
8.376
7.924
7.824
7.924
7.992
8.048
8.096
8.12
8.068
8.068
8.08
8.088
8.044
8.052
8.068
8.076
8.064
8.04
8.076
8.112
8.088
8.076
8.088
8.104
8.112
8.088
8.108
8.116
8.128
8.12
8.116
8.144
8.156
8.148
8.148
8.196
8.188
8.16
8.164
8.224
8.256
8.22
8.22
8.268
8.284
8.3
8.3
8.324
8.372
8.384
8.404
8.444
8.472
8.516
8.52
8.56
8.636
8.684
8.676
8.7
8.764
8.84
8.86
8.892
8.916
8.988
9.016
9.024
9.052
9.064
9.076
9.044
9.016
9.016
8.956
8.888
8.832
8.792
8.708
8.596
8.516
8.48
8.428
8.344
8.272
8.26
8.236
8.16
8.12
8.132
8.128
8.088
8.064
8.096
8.096
8.064
8.04
8.036
8.064
8.068
8.008
8.02
8.044
8.064
8.056
8.024
8.04
8.064
8.06
8.044
8.068
8.08
8.028
8.036
8.052
8.076
8.036
8.028
8.04
8.06
8.052
8.016
8.028
8.068
8.064
8.036
8.056
8.048
8.048
8.024
8.024
8.064
8.056
8.04
8.024
8.048
8.056
8.02
8.008
8.028
8.056
8.02
8.008
8.024
8.04
8.04
8.016
8.02
8.016
8.02
7.976
8.008
8.024
8.02
8.008
7.992
8.032
8.032
8.02
7.956
8.004
8.032
8
7.964
8
8.024
7.988
7.984
7.992
8.012
8
7.972
7.992
8.016
8.004
7.96
7.976
8.02
8
7.972
7.952
8.004
8.004
7.976
7.98
8
8.02
7.996
7.992
7.996
8.008
8
7.964
7.988
8.004
8
7.96
8
8.024
8.024
7.968
8.008
8.004
8.016
8.008
7.996
8.016
8.008
8
7.992
8.036
8.044
8
7.976
7.996
8.028
8.008
7.992
8.004
8.04
8.008
7.996
8.008
8.02
8.016
7.984
8.024
8.02
8.02
7.996
7.996
8.028
8.028
8.004
7.964
8.024
8.044
8.012
7.988
8.04
8.064
8.084
8.096
8.108
8.1
8.068
8.08
8.156
8.192
8.164
8.136
8.092
8.108
8.116
8.044
8.036
8.052
8.076
8.036
8.004
8.012
8.028
7.98
7.968
7.976
8.02
7.972
7.968
7.988
8.008
8.008
7.964
7.936
7.884
7.844
7.92
8.12
8.536
9.076
9.704
10.216
10.244
9.728
9.164
8.716
8.216
7.868
7.82
7.928
8.064
8.108
8.092
8.104
8.112
8.12
8.088
8.076
8.072
8.092
8.088
8.092
8.084
8.124
8.096
8.076
8.108
8.14
8.124
8.108
8.1
8.144
8.16
8.116
8.128
8.148
8.176
8.176
8.144
8.14
8.192
8.188
8.184
8.2
8.24
8.244
8.236
8.264
8.284
8.3
8.296
8.308
8.356
8.368
8.372
8.38
8.444
8.484
8.5
8.508
8.564
8.616
8.616
8.66
8.732
8.772
8.804
8.804
8.852
8.908
8.944
8.952
8.968
9.032
9.076
9.052
9.048
9.044
9.024
8.968
8.912
8.884
8.824
8.732
8.652
8.588
8.528
8.448
8.368
8.336
8.3
8.224
8.196
8.164
8.168
8.132
8.108
8.092
8.084
8.1
8.068
8.06
8.092
8.084
8.072
8.036
8.068
8.092
8.044
8.048
8.056
8.096
8.068
8.064
8.052
8.068
8.08
8.056
8.052
8.08
8.076
8.04
8.06
8.064
8.092
8.056
8.04
8.096
8.084
8.044
8.056
8.076
8.1
8.056
8.048
8.052
8.08
8.048
8.056
8.024
8.072
8.048
8.028
8.052
8.06
8.056
8.028
8.004
8.056
8.044
8.02
7.996
8.028
8.032
8.032
8.004
8.024
8.012
8.004
8.02
8
8.028
8
7.992
8.02
8.02
7.976
7.976
7.996
8.008
8.012
7.964
7.968
7.992
8.036
8.004
7.964
7.992
7.992
7.98
7.96
7.992
7.996
7.992
7.972
8.016
8.02
7.976
7.988
7.972
8.012
7.988
7.964
7.984
8
7.992
7.996
7.98
8.004
8
7.984
7.984
8.012
8.012
7.96
7.956
8.008
8
7.948
7.948
7.992
8.004
8
7.952
7.988
8.016
7.996
7.992
7.984
8.004
7.984
7.98
7.988
7.992
8
7.976
7.988
7.992
8.02
7.988
7.96
7.98
8.008
7.996
7.956
8
8.024
7.992
7.972
7.984
8.012
7.976
7.98
7.992
8.028
8.012
8.02
8.048
8.108
8.116
8.052
8.04
8.088
8.168
8.172
8.136
8.108
8.092
8.088
8.04
8.04
8.052
8.012
7.996
8.016
8.028
7.98
7.936
7.952
7.968
7.972
7.968
7.948
7.976
7.988
7.952
7.952
7.948
7.904
7.796
7.852
8.028
8.336
8.784
9.32
10.004
10.324
9.96
9.324
8.844
8.392
7.94
7.792
7.932
8.028
8.068
8.072
8.092
8.08
8.08
8.06
8.06
8.064
8.084
8.032
8.032
8.084
8.08
8.06
8.052
8.064
8.088
8.064
8.06
8.08
8.104
8.108
8.068
8.092
8.128
8.108
8.112
8.1
8.132
8.156
8.132
8.156
8.164
8.188
8.196
8.156
8.216
8.248
8.24
8.244
8.252
8.316
8.3
8.324
8.368
8.396
8.42
8.42
8.468
8.544
8.556
8.572
8.608
8.668
8.724
8.724
8.768
8.836
8.864
8.904
8.912
8.976
9.012
9.008
9.012
9.032
9.056
9.016
8.952
8.94
8.908
8.824
8.74
8.66
8.608
8.548
8.448
8.392
8.348
8.292
8.228
8.184
8.184
8.16
8.088
8.084
8.096
8.124
8.06
8.04
8.064
8.076
8.052
8
8.02
8.064
8.056
8.024
8.016
8.064
8.068
8.056
8.048
8.048
8.048
8.04
8.032
8.06
8.068
8.032
8.028
8.056
8.08
8.044
8.016
8.052
8.048
8.044
8.02
8.044
8.076
8.04
8.032
8.052
8.084
8.048
8.012
8.016
8.048
8.072
8.028
8.016
8.036
8.056
8.032
8.012
8.048
8.036
8
7.988
8.044
8.024
8
8
8.008
8.024
8.008
7.968
7.988
8.02
8.02
8
7.976
8.008
8.02
7.996
7.968
8.008
8.012
7.984
7.976
7.988
8.004
7.972
7.972
8.008
8.012
7.984
7.972
7.976
7.992
7.98
7.948
7.96
7.988
7.992
7.98
7.948
7.972
7.988
7.968
7.976
7.984
8.004
7.968
7.94
7.988
7.996
7.976
7.964
7.964
8.012
7.988
7.936
7.976
7.984
7.988
7.972
7.968
7.996
7.988
7.964
7.964
7.996
8
7.952
7.956
8.008
8
7.98
7.948
7.976
7.98
7.984
7.956
7.984
7.996
7.992
7.972
8.004
7.996
7.988
7.976
7.988
8.032
8.008
7.968
7.976
8.016
7.992
7.984
7.984
8.008
8.012
7.992
7.968
7.988
8.032
7.992
7.968
7.996
8.024
7.996
7.972
8
8.016
8.008
7.992
8.02
8.072
8.1
8.1
8.056
8.08
8.096
8.088
8.128
8.152
8.176
8.072
8.068
8.072
8.052
8.008
8.008
8.028
8.064
8.016
7.96
7.96
7.976
7.952
7.944
7.948
7.972
7.972
7.948
7.924
7.988
7.976
7.92
7.824
7.82
7.924
8.06
8.404
8.94
9.528
10.148
10.264
9.804
9.228
8.732
8.244
7.86
7.84
7.944
8.008
8.088
8.112
8.104
8.044
8.056
8.08
8.088
8.032
8.016
8.056
8.092
8.064
8.02
8.06
8.072
8.068
8.044
8.06
8.1
8.08
8.072
8.084
8.132
8.104
8.108
8.112
8.156
8.16
8.112
8.124
8.156
8.172
8.156
8.16
8.208
8.2
8.22
8.22
8.264
8.288
8.26
8.272
8.324
8.36
8.348
8.344
8.4
8.468
8.484
8.484
8.516
8.584
8.64
8.66
8.696
8.748
8.8
8.804
8.852
8.916
8.944
8.964
8.96
9.02
9.076
9.028
9.004
8.996
9.008
8.96
8.876
8.8
8.772
8.668
8.616
8.528
8.492
8.432
8.324
8.272
8.256
8.2
8.16
8.096
8.12
8.112
8.052
8.044
8.072
8.08
8.06
8.012
8.036
8.06
8.048
8.012
8.036
8.044
8.016
7.996
8.024
8.044
8.044
8
8.016
8.052
8.048
8.012
8.016
8.032
8.048
8.036
8.02
8.04
8.068
8.028
8.02
8.032
8.06
8.04
8.028
8.028
8.056
8.032
8
8.028
8.06
8.044
8.012
8.016
8.036
8.032
8.024
7.996
8.016
8.032
8.004
7.992
8.032
8.02
7.988
7.964
8.016
8.032
7.996
7.98
7.992
8.016
8.02
7.98
7.956
8.02
8
7.984
7.972
8.016
8.004
7.968
7.94
7.984
8.02
7.964
7.972
7.972
8.008
7.984
7.944
7.968
7.992
7.996
7.972
7.968
7.98
7.976
7.964
7.984
7.98
7.952
7.956
7.96
7.992
7.976
7.952
7.948
7.98
7.984
7.98
7.92
7.98
7.98
7.964
7.948
7.976
7.976
7.968
7.944
7.968
7.988
7.968
7.964
7.964
7.988
7.992
7.952
7.96
8
7.992
7.992
7.96
7.996
7.988
7.964
7.952
7.98
8.004
7.96
7.976
7.972
8.012
7.984
7.94
7.968
8.012
7.984
7.976
7.972
8
7.992
7.984
7.972
7.988
7.992
7.984
7.992
8
8.02
7.976
7.964
7.992
8.008
7.98
7.972
7.988
7.996
7.984
7.968
7.98
7.996
8.004
7.992
8.048
8.076
8.096
8.06
8.064
8.088
8.108
8.14
8.116
8.148
8.116
8.076
8.016
8.012
8.032
8.036
8.012
8.004
8.008
7.964
7.94
7.948
7.968
7.94
7.908
7.948
7.968
7.952
7.94
7.936
7.956
7.932
7.824
7.748
7.884
8.072
8.408
8.892
9.504
10.128
10.26
9.744
9.204
8.744
8.224
7.82
7.808
7.96
8.02
8.036
8.048
8.096
8.076
8.028
8.02
8.068
8.036
8.032
8.024
8.048
8.052
8.032
8.012
8.048
8.064
8.044
8.016
8.076
8.096
8.04
8.056
8.08
8.108
8.116
8.092
8.092
8.128
8.112
8.1
8.116
8.132
8.16
8.148
8.136
8.196
8.216
8.196
8.196
8.236
8.268
8.284
8.276
8.312
8.356
8.356
8.368
8.408
8.48
8.492
8.496
8.556
8.612
8.644
8.672
8.704
8.764
8.816
8.812
8.844
8.888
8.968
8.968
8.964
9.016
9.032
9.004
8.968
8.944
8.948
8.868
8.796
8.74
8.704
8.612
8.504
8.444
8.404
8.356
8.252
8.22
8.192
8.156
8.108
8.056
8.08
8.052
8.056
8.028
8.02
8.032
7.988
7.984
7.992
8.02
7.984
7.96
7.992
8.028
7.976
7.988
7.976
7.988
8.016
7.992
7.98
8.004
8.008
8.012
7.964
8.016
8.016
7.98
7.98
8.004
8.004
7.98
7.976
7.988
8.036
7.98
7.968
7.972
7.992
7.996
7.968
7.984
7.984
7.988
7.956
7.964
7.976
7.988
7.936
7.956
7.98
8.016
7.948
7.924
7.968
7.992
7.944
7.916
7.948
7.972
7.928
7.928
7.936
7.956
7.952
7.912
7.912
7.928
7.928
7.9
7.9
7.944
7.952
7.916
7.896
7.924
7.932
7.9
7.9
7.92
7.94
7.9
7.892
7.9
7.932
7.884
7.868
7.9
7.92
7.916
7.888
7.88
7.936
7.912
7.9
7.896
7.916
7.936
7.9
7.896
7.908
7.924
7.892
7.9
7.916
7.916
7.896
7.88
7.9
7.94
7.908
7.868
7.904
7.94
7.924
7.892
7.9
7.924
7.92
7.876
7.9
7.924
7.916
7.896
7.892
7.912
7.948
7.888
7.884
7.912
7.96
7.908
7.868
7.9
7.936
7.92
7.892
7.872
7.928
7.924
7.908
7.908
7.912
7.932
7.904
7.896
7.952
7.996
7.972
7.968
8.036
8.02
7.952
7.948
8.004
8.088
8.08
8.04
8
8.008
7.98
7.944
7.94
7.972
7.94
7.912
7.9
7.924
7.892
7.836
7.816
7.856
7.884
7.864
7.828
7.872
7.876
7.864
7.844
7.84
7.772
7.676
7.752
7.948
8.308
8.788
9.328
10
10.168
9.748
9.144
8.652
8.224
7.82
7.712
7.8
7.908
7.96
8
7.976
8.004
7.988
7.96
7.952
7.944
8.004
7.968
7.952
7.968
7.992
7.972
7.964
7.964
7.996
8.016
7.996
7.968
8.02
8.028
8.008
8.024
8.028
8.044
8.02
8.024
8.072
8.092
8.08
8.04
8.06
8.14
8.128
8.096
8.12
8.156
8.18
8.168
8.192
8.212
8.264
8.224
8.272
8.344
8.34
8.344
8.4
8.456
8.504
8.516
8.524
8.584
8.672
8.684
8.696
8.772
8.82
8.844
8.872
8.896
8.968
8.968
8.976
8.98
9.02
8.992
8.936
8.872
8.896
8.824
8.696
8.624
8.568
8.516
8.416
8.316
8.288
8.268
8.188
8.116
8.084
8.104
8.048
8.004
8.032
8.036
8.012
7.98
7.98
8.012
8
7.992
7.948
7.992
8.016
7.984
7.948
7.976
7.992
7.972
7.976
7.984
8
7.972
7.948
7.996
8.02
7.988
7.976
7.964
8.028
8.008
7.984
7.972
8.008
8.016
7.98
7.968
8
8.008
7.972
7.968
8
8.004
7.984
7.948
7.98
8.004
7.98
7.936
7.976
7.992
7.984
7.956
7.964
7.992
7.96
7.932
7.948
7.968
7.968
7.952
7.916
7.964
7.988
7.948
7.936
7.952
7.996
7.94
7.932
7.952
7.988
7.944
7.944
7.936
7.964
7.948
7.928
7.944
7.96
7.968
7.936
7.924
7.948
7.964
7.92
7.932
7.924
7.968
7.916
7.92
7.932
7.976
7.944
7.94
7.948
7.992
7.952
7.92
7.952
7.956
7.948
7.932
7.932
7.984
7.952
7.94
7.896
7.972
7.96
7.952
7.92
7.96
7.956
7.964
7.936
7.952
7.976
7.948
7.98
7.988
8.068
8.048
7.992
8
8.052
8.076
8.096
8.088
8.104
8.048
8.028
8.02
8.012
8.028
8
7.968
7.98
7.98
7.94
7.912
7.936
7.964
7.912
7.9
7.928
7.968
7.944
7.896
7.94
7.944
7.908
7.816
7.756
7.864
8.02
8.396
8.928
9.556
10.104
10.188
9.668
9.14
8.712
8.212
7.784
7.756
7.9
7.952
7.972
8.016
8.072
8.032
8.012
8.008
8.048
8.036
7.996
8.028
8.052
8.04
8.024
7.996
8.028
8.056
8.032
8.04
8.06
8.068
8.06
8.06
8.06
8.104
8.08
8.088
8.088
8.124
8.104
8.084
8.128
8.18
8.136
8.128
8.144
8.192
8.196
8.176
8.196
8.232
8.252
8.248
8.264
8.316
8.352
8.344
8.38
8.396
8.476
8.456
8.504
8.548
8.616
8.64
8.624
8.7
8.736
8.768
8.8
8.824
8.876
8.924
8.936
8.964
8.976
8.988
8.948
8.924
8.916
8.896
8.804
8.712
8.684
8.616
8.528
8.42
8.384
8.352
8.268
8.208
8.184
8.172
8.116
8.088
8.048
8.084
8.044
8.024
8.008
8.032
8.028
7.988
8.012
8.012
8.056
7.996
7.996
7.996
8.036
7.988
7.984
7.984
8.04
8
7.996
8.016
8.024
8.02
7.992
7.988
8.044
8.02
7.976
7.988
8.032
8.052
7.988
7.98
7.996
8.028
8.008
8.008
7.996
8.02
7.992
7.964
7.996
8.028
7.98
7.952
7.984
8.008
8
7.944
7.968
7.976
8.004
7.976
7.976
7.996
7.984
7.972
7.956
7.988
7.996
7.964
7.956
7.988
8.008
7.956
7.944
7.944
7.996
7.94
7.94
7.936
7.996
7.98
7.94
7.952
7.948
7.94
7.936
7.94
7.956
7.948
7.916
7.92
7.952
7.968
7.948
7.92
7.948
7.964
7.952
7.936
7.952
7.968
7.96
7.948
7.948
7.972
7.96
7.924
7.944
7.964
7.944
7.928
7.924
7.96
7.976
7.916
7.92
7.924
7.968
7.936
7.912
7.936
7.968
7.932
7.92
7.936
7.992
7.988
8.004
8.024
8.06
8.012
8.004
8.016
8.112
8.116
8.104
8.048
8.052
8.064
7.992
7.952
7.972
8.008
7.936
7.956
7.964
7.964
7.904
7.848
7.884
7.928
7.896
7.876
7.908
7.908
7.904
7.888
7.9
7.864
7.772
7.744
7.848
8.08
8.484
8.976
9.58
10.144
10.176
9.56
9
8.56
8.108
7.732
7.744
7.888
7.976
8.016
8.02
8.012
8.016
8.004
7.976
7.984
7.988
7.976
7.956
7.96
7.996
8.016
7.956
7.956
7.996
8.016
8.004
7.956
8
8.052
8.032
8.02
8.016
8.064
8.052
8.044
8.056
8.084
8.092
8.048
8.104
8.124
8.124
8.108
8.112
8.148
8.192
8.18
8.172
8.224
8.252
8.244
8.264
8.3
8.352
8.336
8.384
8.416
8.484
8.496
8.516
8.54
8.636
8.664
8.636
8.7
8.788
8.812
8.812
8.836
8.924
8.936
8.94
8.952
8.964
8.984
8.908
8.852
8.852
8.804
8.708
8.592
8.548
8.536
8.416
8.336
8.292
8.248
8.196
8.136
8.088
8.092
8.068
8.032
8.02
8.016
8.028
7.992
7.976
8.004
8.016
7.968
7.94
7.98
7.996
7.996
7.964
7.952
8
7.972
7.948
7.964
7.98
7.956
7.94
7.964
7.98
7.988
7.96
7.948
7.972
8.012
7.948
7.96
7.976
8.012
7.988
7.948
7.96
8.016
7.972
7.964
7.972
8.008
7.976
7.948
7.98
7.98
7.96
7.928
7.944
7.968
7.968
7.928
7.948
7.956
7.956
7.956
7.916
7.956
7.952
7.916
7.936
7.952
7.96
7.94
7.9
7.944
7.964
7.936
7.912
7.94
7.968
7.96
7.92
7.908
7.94
7.948
7.904
7.912
7.936
7.932
7.912
7.92
7.936
7.932
7.916
7.904
7.928
7.936
7.928
7.892
7.912
7.952
7.936
7.904
7.928
7.948
7.928
7.896
7.916
7.916
7.94
7.916
7.904
7.94
7.948
7.892
7.9
7.924
7.96
7.92
7.916
7.92
7.956
7.916
7.908
7.912
7.944
7.928
7.88
7.908
7.952
7.908
7.908
7.912
7.928
7.944
7.912
7.92
7.944
7.956
7.92
7.868
7.904
7.932
7.932
7.908
7.904
7.968
7.928
7.916
7.916
7.94
7.924
7.904
7.924
7.944
7.944
7.916
7.904
7.924
7.936
7.912
7.96
7.984
8.016
8.008
7.996
7.996
8
8
8.056
8.1
8.1
8.024
7.984
8.02
8.028
7.976
7.94
7.94
7.952
7.964
7.92
7.896
7.9
7.908
7.868
7.88
7.88
7.908
7.864
7.86
7.876
7.916
7.868
7.784
7.736
7.832
7.916
8.184
8.664
9.22
9.864
10.216
9.952
9.368
8.844
8.352
7.876
7.74
7.852
7.896
7.972
8.036
8.044
7.992
7.98
7.964
8.008
7.98
7.972
7.968
8.02
7.992
7.952
7.98
8.012
7.988
7.976
8.008
8.032
8.024
7.988
8.012
8.044
8.048
8.008
8
8.048
8.076
8.084
8.048
8.072
8.12
8.084
8.076
8.12
8.14
8.132
8.14
8.172
8.2
8.196
8.176
8.212
8.28
8.316
8.28
8.32
8.38
8.388
8.428
8.432
8.484
8.516
8.536
8.588
8.664
8.72
8.732
8.732
8.808
8.864
8.852
8.884
8.916
8.972
8.968
8.936
8.932
8.94
8.9
8.844
8.788
8.732
8.668
8.556
8.484
8.44
8.392
8.296
8.204
8.196
8.176
8.112
8.064
8.06
8.088
8.052
8.02
8.012
8.016
7.992
8
7.996
7.992
8
7.968
7.996
7.976
8.024
7.968
7.968
8.008
8.008
7.984
7.976
7.976
8.008
8.004
7.968
7.988
8.016
7.98
7.984
7.988
8
8.012
7.968
7.98
8.028
8.024
7.976
7.976
8.012
8.012
7.988
7.964
7.98
8.004
7.976
7.972
7.984
7.972
7.972
7.972
7.968
7.98
7.972
7.94
7.972
7.98
7.968
7.944
7.944
7.96
7.984
7.944
7.94
7.964
7.968
7.932
7.936
7.972
7.972
7.96
7.936
7.96
7.988
7.952
7.928
7.94
7.96
7.972
7.916
7.936
7.94
7.944
7.912
7.932
7.948
7.952
7.932
7.928
7.936
7.94
7.924
7.92
7.944
7.956
7.904
7.908
7.936
7.944
7.936
7.908
7.936
7.952
7.92
7.908
7.908
7.936
7.924
7.908
7.908
7.956
7.928
7.9
7.908
7.928
7.936
7.912
7.904
7.92
7.956
7.936
7.904
7.908
7.94
7.928
7.916
7.94
7.944
7.916
7.908
7.94
7.944
7.952
7.908
7.932
7.96
7.968
7.92
7.936
7.936
7.972
7.944
7.92
7.94
7.964
7.924
7.928
7.952
7.968
7.94
7.944
7.952
7.964
7.944
7.904
7.94
7.98
8.02
7.98
8.028
8.06
8.012
8.004
8.036
8.112
8.128
8.084
8.04
8.056
8.068
7.98
7.968
8.008
8.024
7.968
7.952
7.924
7.968
7.916
7.888
7.88
7.884
7.904
7.884
7.896
7.924
7.936
7.888
7.896
7.836
7.784
7.8
7.908
8.224
8.704
9.22
9.856
10.256
9.984
9.38
8.852
8.4
7.968
7.748
7.848
7.944
8
8.052
8.02
8.04
8.052
8.036
7.98
7.96
8.036
8.032
7.996
7.992
8.004
8.036
8.02
7.992
8
8.024
8.024
8.012
8.036
8.044
8.044
8.016
8.04
8.08
8.072
8.06
8.072
8.116
8.116
8.096
8.116
8.136
8.156
8.148
8.136
8.184
8.204
8.188
8.188
8.248
8.296
8.264
8.264
8.308
8.372
8.4
8.392
8.42
8.476
8.512
8.544
8.572
8.628
8.656
8.68
8.72
8.784
8.812
8.824
8.856
8.928
8.976
8.968
8.944
9
8.98
8.94
8.876
8.844
8.824
8.732
8.64
8.616
8.548
8.46
8.372
8.32
8.268
8.236
8.144
8.12
8.116
8.124
8.052
8.016
8.028
8.04
8.012
7.984
8.004
8.016
7.996
7.964
8.004
8.012
7.98
7.984
8
8.016
8
7.96
7.992
8.024
8.024
7.98
7.968
7.992
8.028
8
7.972
8.008
8.012
8.008
8
8.016
8.024
8.02
7.968
8.004
8.02
8.004
7.944
7.992
8.028
8.004
7.964
7.964
7.98
7.972
7.972
7.968
7.98
7.984
7.964
7.972
7.988
8
7.952
7.932
7.952
7.992
7.952
7.94
7.924
7.972
7.968
7.932
7.948
7.94
7.972
7.932
7.928
7.956
7.96
7.932
7.924
7.956
7.952
7.932
7.928
7.956
7.972
7.968
7.912
7.94
7.98
7.944
7.928
7.94
7.952
7.964
7.932
7.952
7.976
7.952
7.912
7.956
7.968
7.964
7.936
7.932
7.952
7.972
7.916
7.908
7.94
7.98
7.964
7.916
7.94
7.96
7.952
7.928
7.952
7.948
7.964
7.912
7.956
7.984
7.98
7.932
7.94
7.932
7.968
7.936
7.948
7.956
7.96
7.94
7.944
7.944
7.96
7.948
7.944
7.952
7.992
7.944
7.924
7.944
7.984
7.968
7.908
7.944
7.952
7.98
7.936
7.94
7.956
7.976
7.952
7.956
7.948
7.972
7.944
7.94
7.948
7.98
7.956
7.936
7.956
7.992
7.944
7.924
7.976
8.012
8.036
8
8.044
8.076
8.044
8
8.04
8.096
8.144
8.076
8.076
8.064
8.048
8.004
7.972
7.98
8.04
7.996
7.96
7.972
7.976
7.944
7.888
7.904
7.916
7.896
7.9
7.952
7.944
7.924
7.908
7.9
7.876
7.796
7.78
7.896
8.192
8.668
9.152
9.784
10.252
10.088
9.488
8.952
8.472
8.012
7.784
7.856
7.952
8.036
8.056
8.036
8.044
8.06
8.024
8.004
8.012
8.032
8.048
8.028
8.028
8.032
8.044
8.016
8.012
8.048
8.052
8.024
8.024
8.048
8.084
8.068
8.04
8.076
8.088
8.108
8.084
8.096
8.108
8.14
8.112
8.124
8.156
8.184
8.148
8.172
8.212
8.212
8.196
8.208
8.252
8.268
8.308
8.288
8.328
8.392
8.396
8.412
8.444
8.512
8.536
8.552
8.588
8.676
8.704
8.72
8.768
8.804
8.86
8.864
8.892
8.956
8.992
8.996
8.972
9.024
9.016
8.988
8.936
8.916
8.888
8.788
8.712
8.68
8.616
8.528
8.44
8.376
8.348
8.288
8.196
8.168
8.152
8.156
8.096
8.04
8.048
8.056
8.024
8.024
8.004
8.052
8.016
8.004
8.028
8.036
8.032
7.98
8
8.044
8.02
7.984
8
8.036
8.036
7.996
7.996
8.02
8.024
8.024
7.996
8.016
8.032
8.016
8.012
8.036
8.028
8.016
7.988
8.016
8.052
8.024
7.976
8.008
8.02
8.008
8.012
7.988
8.036
8.016
8
8.004
8.004
8.02
7.984
7.976
8.016
8.004
7.98
7.972
7.992
8.028
7.984
7.972
7.976
7.996
8.016
7.98
7.984
8.008
7.976
7.96
7.996
7.992
8
7.94
7.984
7.996
7.996
7.984
7.968
7.972
8.004
7.972
7.94
7.968
7.996
7.984
7.944
7.968
7.98
7.972
7.96
7.952
7.988
7.96
7.948
7.948
8
7.968
7.952
7.96
7.988
7.964
7.968
7.956
7.984
7.956
7.976
7.952
7.984
7.984
7.96
7.976
7.96
8.008
7.992
7.956
7.968
8
7.976
7.968
7.98
7.992
8.012
7.968
7.968
7.984
7.992
7.972
7.98
7.984
8.004
7.96
7.948
7.972
8.016
7.984
7.964
7.98
7.98
8
7.952
7.98
7.972
7.988
7.972
7.984
7.996
7.98
7.968
8.028
8.072
8.092
8.06
8.036
8.056
8.068
8.112
8.108
8.144
8.128
8.076
8.052
8.048
8.04
8.02
8.004
8.012
8.008
7.992
7.952
7.964
7.952
7.92
7.92
7.944
7.952
7.952
7.936
7.932
7.948
7.952
7.892
7.804
7.792
7.892
8.068
8.472
9.048
9.664
10.192
10.2
9.688
9.156
8.664
8.144
7.812
7.82
7.952
8.016
8.04
8.076
8.104
8.076
8.036
8.048
8.056
8.02
8.028
8.044
8.072
8.048
8.02
8.068
8.084
8.068
8.064
8.08
8.088
8.072
8.076
8.068
8.112
8.1
8.096
8.088
8.12
8.116
8.128
8.116
8.172
8.172
8.168
8.16
8.208
8.248
8.22
8.196
8.204
8.268
8.296
8.256
8.296
8.324
8.348
8.368
8.388
8.44
8.456
8.5
8.516
8.576
8.632
8.628
8.652
8.712
8.788
8.808
8.828
8.888
8.904
8.956
8.948
9
9.032
9.008
8.992
8.996
9.02
8.96
8.884
8.828
8.776
8.708
8.616
8.52
8.476
8.42
8.34
8.28
8.236
8.212
8.176
8.116
8.124
8.124
8.068
8.044
8.072
8.084
8.052
8.012
8.044
8.056
8.068
8.004
8.024
8.052
8.04
8.036
8.04
8.028
8.048
8.044
8
8.056
8.072
8.024
8.02
8.052
8.08
8.056
8.028
8.048
8.06
8.064
8.04
8.044
8.076
8.064
8.04
8.048
8.06
8.044
8.02
8.048
8.04
8.048
8.008
8.02
8.036
8.068
8.04
8.004
8.008
8.064
8.048
8
8.024
8.024
8.012
8.016
8.028
8.032
8.02
8
8.004
8.012
8.008
8.004
7.996
8.02
8.024
7.988
7.96
7.984
8.024
8.036
7.988
8
8.02
8.008
7.984
7.996
8.04
7.984
7.968
8.004
8.032
8.016
7.968
7.988
8.016
8.012
7.996
7.984
8.016
8.024
8.02
7.98
8.008
8.02
7.984
7.988
8.02
8.012
7.996
7.964
8.004
8.024
7.996
7.976
7.996
8.024
8.008
8
7.98
8.02
7.996
7.992
7.996
8
8.004
7.984
7.984
8.032
8.008
8.012
7.996
8
8.016
8.012
7.988
8.016
8.024
8.008
8.012
7.988
7.992
8.016
7.996
8
8.004
8.008
7.996
7.988
8.012
8.012
7.98
7.992
7.996
8.032
8.008
7.98
8.016
8.008
8.004
8
8.008
8.052
8.072
8.044
8.1
8.132
8.076
8.052
8.08
8.156
8.18
8.136
8.104
8.108
8.112
8.072
8.004
8.036
8.048
8.036
7.976
8.02
7.992
7.96
7.944
7.968
7.964
7.964
7.956
7.964
8.004
7.964
7.952
7.96
7.908
7.84
7.844
7.948
8.256
8.688
9.216
9.884
10.332
10.12
9.484
8.94
8.484
8.032
7.812
7.896
7.992
8.096
8.108
8.096
8.084
8.088
8.064
8.056
8.032
8.064
8.052
8.036
8.056
8.072
8.088
8.048
8.052
8.08
8.08
8.056
8.068
8.1
8.108
8.092
8.088
8.092
8.116
8.132
8.112
8.14
8.164
8.14
8.16
8.172
8.188
8.208
8.18
8.188
8.216
8.244
8.252
8.216
8.264
8.316
8.328
8.308
8.376
8.38
8.408
8.42
8.468
8.516
8.524
8.58
8.616
8.66
8.712
8.688
8.764
8.82
8.84
8.868
8.884
8.944
8.972
9
9.016
9.012
9.036
9.008
8.96
8.94
8.9
8.824
8.724
8.68
8.636
8.544
8.468
8.408
8.356
8.308
8.244
8.2
8.16
8.164
8.112
8.1
8.096
8.088
8.068
8.036
8.044
8.052
8.044
7.996
8.004
8.064
8.04
7.996
8.044
8.048
8.044
8.032
8.032
8.04
8.052
8.024
8.024
8.052
8.032
8.04
8.016
8.056
8.048
8.02
8.024
8.048
8.068
8.04
8.004
8.024
8.032
8.044
8.02
8.028
8.056
8.02
8.024
8.016
8.036
8.008
7.988
8.008
8.036
8.036
8.008
7.992
8.016
8.032
8.008
7.964
8
8.024
7.984
7.996
7.996
8.02
7.98
7.976
8.016
8.02
7.996
7.976
7.992
8.012
8.008
7.992
7.976
7.996
7.996
7.992
7.956
7.98
7.968
7.992
7.976
7.98
8.024
7.964
7.952
7.992
8.016
7.984
7.968
7.98
7.992
8.004
7.964
7.976
8.004
8.004
7.988
7.988
8.004
7.988
7.968
7.976
7.984
7.996
7.988
7.976
7.988
8.004
7.968
7.948
7.988
8.008
7.988
7.972
7.964
8
8
7.98
8
8.02
8.02
7.968
8
8.02
7.988
7.976
7.976
8.02
8.016
7.988
7.984
7.996
8.008
7.976
7.972
7.976
8.012
7.988
7.98
7.984
8.032
7.984
7.992
8.016
8.032
7.98
7.968
7.988
8.024
8.004
7.992
7.984
8.016
8.004
7.992
7.984
8.016
8.072
8.06
8.088
8.12
8.112
8.068
8.048
8.136
8.184
8.168
8.116
8.076
8.112
8.064
8.036
8.02
8.048
8.06
8.02
8
8.004
7.972
7.944
7.944
7.98
7.964
7.972
7.928
7.976
8.008
7.96
7.944
7.916
7.876
7.844
7.924
8.156
8.58
9.1
9.716
10.268
10.24
9.668
9.108
8.624
8.164
7.848
7.86
7.976
8.06
8.132
8.12
8.1
8.088
8.12
8.08
8.056
8.064
8.076
8.072
8.072
8.068
8.084
8.064
8.068
8.1
8.1
8.124
8.076
8.088
8.124
8.144
8.092
8.112
8.128
8.164
8.16
8.152
8.172
8.188
8.168
8.164
8.204
8.236
8.212
8.204
8.244
8.268
8.292
8.276
8.288
8.308
8.356
8.324
8.372
8.416
8.448
8.456
8.468
8.548
8.568
8.588
8.632
8.668
8.724
8.744
8.76
8.816
8.884
8.916
8.908
8.968
9.016
9.036
9.012
9.048
9.048
9.064
9.02
8.984
8.952
8.912
8.796
8.728
8.676
8.616
8.516
8.436
8.404
8.36
8.28
8.24
8.212
8.204
8.152
8.136
8.1
8.124
8.092
8.068
8.064
8.092
8.08
8.04
8.04
8.076
8.108
8.052
8.032
8.056
8.092
8.072
8.056
8.068
8.08
8.064
8.06
8.084
8.08
8.068
8.072
8.076
8.092
8.084
8.064
8.064
8.08
8.088
8.068
8.056
8.088
8.096
8.076
8.068
8.072
8.06
8.052
8.06
8.068
8.072
8.048
8.032
8.06
8.072
8.064
8.056
8.044
8.056
8.076
8.04
8.044
8.072
8.076
8.052
8.04
8.052
8.04
8.032
8.02
8.064
8.052
8.04
8.036
8.036
8.056
8.024
7.996
8.024
8.04
8.016
8.02
8.008
8.048
8.04
8
8.016
8.04
8.036
8.016
8.008
8.02
8.024
8.008
8
8.016
8.04
8
7.992
8.024
8.032
8.016
8.016
8.016
8.02
8.028
8.024
8.024
8.024
8.012
7.988
8.012
8.048
8.028
7.992
7.972
8.04
8.028
7.996
7.988
8
8.024
8.016
7.992
8.004
8.048
8.02
8.028
8.02
8.04
8.024
8.012
8.016
8.044
8.028
8.008
8.008
8.012
8.02
8.016
8.004
8.024
8.02
8
8.008
8.02
8.016
8
8.008
8.024
8.052
8.024
7.988
8.02
8.028
8.024
8.032
8.064
8.12
8.144
8.124
8.076
8.108
8.092
8.136
8.172
8.176
8.172
8.096
8.124
8.1
8.068
8.04
8.048
8.06
8.064
8.036
7.98
7.98
8
7.976
7.972
7.96
8.008
7.984
7.952
8.008
7.988
8.004
7.928
7.856
7.872
7.956
8.156
8.528
9.076
9.708
10.228
10.24
9.692
9.164
8.704
8.192
7.86
7.892
7.984
8.072
8.104
8.136
8.116
8.088
8.068
8.12
8.104
8.068
8.068
8.096
8.084
8.076
8.084
8.088
8.1
8.08
8.076
8.116
8.12
8.1
8.08
8.128
8.136
8.132
8.124
8.124
8.176
8.188
8.144
8.168
8.196
8.208
8.184
8.204
8.216
8.248
8.228
8.26
8.268
8.304
8.288
8.288
8.336
8.368
8.356
8.388
8.416
8.48
8.496
8.504
8.544
8.612
8.64
8.656
8.704
8.776
8.78
8.804
8.844
8.908
8.956
8.96
8.976
9.032
9.068
9.044
9.048
9.032
9.048
8.992
8.92
8.872
8.828
8.736
8.676
8.604
8.564
8.48
8.396
8.332
8.324
8.252
8.192
8.156
8.168
8.16
8.104
8.1
8.088
8.112
8.084
8.072
8.084
8.076
8.068
8.044
8.08
8.044
8.068
8.052
8.06
8.088
8.08
8.056
8.056
8.064
8.104
8.048
8.072
8.084
8.092
8.068
8.044
8.064
8.1
8.064
8.064
8.088
8.084
8.068
8.06
8.084
8.112
8.068
8.04
8.068
8.096
8.08
8.06
8.052
8.088
8.072
8.068
8.056
8.06
8.088
8.056
8.068
8.072
8.08
8.044
8.02
8.068
8.068
8.04
8.02
8.028
8.052
8.04
8.028
8.04
8.04
8.048
8.028
8.02
8.048
8.04
8.016
8.016
8.024
8.044
8.028
8.008
8.036
8.04
8.02
8.008
8.032
8.028
8.008
8.016
8.024
8.016
8.028
8.032
8.032
8.032
8.028
7.98
8.024
8.048
8.044
8.004
8.004
8.036
8.048
8.024
8.016
8.032
8.044
8.016
8.02
8.036
8.064
8.004
8.012
8.036
8.04
8.02
7.992
8.024
8.048
8.044
8.016
8.012
8.024
8.048
8.004
8.02
8.032
8.048
8.02
8.016
8.016
8.036
8.012
8.012
8.04
8.08
8.024
8.008
8.032
8.06
8.052
8.008
8.016
8.044
8.048
8.02
8.048
8.084
8.12
8.112
8.144
8.156
8.112
8.088
8.144
8.192
8.22
8.172
8.104
8.132
8.144
8.096
8.04
8.072
8.092
8.068
8.056
8.048
8.02
8.004
7.952
7.988
8
8.008
7.968
7.984
8.012
8.044
8.008
7.94
7.92
7.86
7.916
8.068
8.412
8.936
9.48
10.12
10.364
9.936
9.312
8.788
8.348
7.956
7.844
7.948
8.048
8.124
8.156
8.144
8.116
8.1
8.104
8.08
8.08
8.072
8.104
8.076
8.064
8.116
8.104
8.112
8.064
8.124
8.124
8.1
8.092
8.116
8.144
8.156
8.132
8.112
8.156
8.18
8.16
8.164
8.188
8.196
8.2
8.192
8.232
8.244
8.248
8.24
8.268
8.292
8.3
8.288
8.336
8.356
8.376
8.36
8.4
8.456
8.456
8.46
8.54
8.576
8.612
8.62
8.66
8.736
8.78
8.76
8.82
8.896
8.94
8.936
8.952
9.004
9.04
9.064
9.044
9.072
9.092
9.036
8.984
8.984
8.936
8.872
8.776
8.712
8.68
8.564
8.476
8.392
8.368
8.332
8.28
8.204
8.208
8.172
8.144
8.108
8.112
8.12
8.1
8.072
8.084
8.116
8.092
8.068
8.064
8.084
8.08
8.052
8.048
8.068
8.096
8.08
8.056
8.088
8.084
8.076
8.06
8.076
8.076
8.048
8.06
8.08
8.088
8.08
8.064
8.064
8.112
8.088
8.064
8.08
8.12
8.096
8.072
8.08
8.092
8.084
8.084
8.072
8.08
8.08
8.068
8.044
8.08
8.076
8.056
8.044
8.064
8.068
8.064
8.036
8.048
8.052
8.06
8.008
8.056
8.036
8.032
8.032
8.032
8.052
8.04
8.012
8.024
8.048
8.068
8.036
8.02
8.02
8.044
8.044
8.012
8.036
8.04
8.024
8.008
8.04
8.04
8.012
8.008
8.016
8.036
8.028
8
8.004
8.04
8.04
8.02
7.988
8.028
8.024
8.02
8.004
8.04
8.02
8.016
8
8.024
8.044
8.016
8.004
8.032
8.048
8.016
8.02
8.024
8.036
8.04
8.02
8.012
8.02
8.044
8.032
8.024
8.044
8.048
8.024
8.02
8.052
8.044
8.016
8.012
8.048
8.052
8.02
8.024
8.04
8.06
8.04
8.016
8.048
8.056
8.052
8.012
8.028
8.048
8.096
8.092
8.128
8.14
8.108
8.096
8.096
8.176
8.22
8.18
8.12
8.092
8.124
8.072
8.044
8.068
8.084
8.052
8.028
8.024
8.028
8.004
7.96
7.98
7.992
7.992
7.984
7.956
7.988
8.012
8.004
7.96
7.9
7.86
7.888
7.956
8.288
8.776
9.308
9.96
10.332
10.116
9.484
8.94
8.504
8.036
7.832
7.88
7.964
8.072
8.104
8.104
8.096
8.1
8.084
8.084
8.052
8.08
8.092
8.068
8.072
8.096
8.104
8.092
8.072
8.1
8.14
8.108
8.072
8.1
8.124
8.132
8.108
8.1
8.14
8.156
8.136
8.136
8.172
8.188
8.16
8.168
8.2
8.232
8.208
8.22
8.264
8.284
8.272
8.272
8.288
8.336
8.34
8.364
8.364
8.4
8.464
8.452
8.488
8.552
8.584
8.576
8.644
8.704
8.768
8.76
8.784
8.84
8.88
8.924
8.908
8.988
9.024
9.048
9.044
9.072
9.068
9.04
8.972
8.956
8.948
8.872
8.784
8.72
8.676
8.596
8.484
8.42
8.392
8.336
8.272
8.204
8.208
8.176
8.136
8.112
8.128
8.124
8.072
8.048
8.1
8.1
8.064
8.044
8.076
8.096
8.1
8.056
8.056
8.072
8.084
8.052
8.036
8.084
8.072
8.044
8.056
8.068
8.08
8.052
8.04
8.064
8.096
8.068
8.044
8.056
8.1
8.076
8.036
8.064
8.072
8.052
8.056
8.044
8.064
8.076
8.048
8.028
8.052
8.06
8.036
8.024
8.076
8.076
8.048
8
8.044
8.076
8.044
8.012
8.048
8.052
8.048
8.024
8.036
8.044
8.032
8.02
8.004
8.036
8.032
8
7.992
8.024
8.052
8.008
8.008
8.016
8.028
8.016
8.012
8.016
8.04
7.988
7.98
8
8.04
8
7.992
8
8.044
8.016
8
7.996
8.024
8.024
7.992
7.976
7.992
8.012
8.008
8.008
8.008
8.02
7.996
7.98
8.036
8.024
8.02
7.988
8.02
8.04
8.02
8.004
8.008
8.048
8.048
8.004
8.016
8.036
8.04
8.024
8.008
8.056
8.052
8.012
7.988
8.052
8.056
8.012
7.996
8.028
8.064
8.032
8.008
8.024
8.028
8.052
8.02
8.028
8.048
8.036
8.024
8.012
8.052
8.08
8.048
8.096
8.128
8.168
8.1
8.076
8.116
8.22
8.2
8.176
8.172
8.14
8.116
8.084
8.064
8.092
8.08
8.064
8.06
8.048
8.028
7.976
7.976
8.008
8.012
7.96
7.98
8.02
8.02
7.996
7.968
7.984
7.964
7.84
7.856
7.976
8.236
8.644
9.144
9.828
10.316
10.212
9.584
9.048
8.608
8.12
7.836
7.9
8.012
8.1
8.112
8.112
8.108
8.124
8.092
8.056
8.076
8.112
8.06
8.064
8.112
8.112
8.084
8.084
8.096
8.148
8.108
8.1
8.104
8.132
8.128
8.132
8.108
8.148
8.148
8.152
8.14
8.168
8.2
8.172
8.152
8.208
8.252
8.216
8.188
8.232
8.276
8.28
8.268
8.296
8.32
8.352
8.328
8.368
8.404
8.424
8.448
8.48
8.528
8.556
8.556
8.584
8.676
8.728
8.7
8.74
8.792
8.872
8.892
8.912
8.96
8.992
9.012
9.032
9.044
9.088
9.076
9.024
9.032
9.02
8.98
8.892
8.82
8.772
8.696
8.612
8.5
8.472
8.436
8.348
8.292
8.272
8.228
8.192
8.164
8.156
8.152
8.116
8.08
8.116
8.132
8.092
8.052
8.068
8.088
8.116
8.056
8.044
8.076
8.1
8.056
8.044
8.068
8.1
8.048
8.072
8.104
8.112
8.072
8.068
8.072
8.1
8.068
8.084
8.072
8.1
8.072
8.068
8.084
8.108
8.104
8.072
8.068
8.084
8.1
8.056
8.064
8.088
8.092
8.028
8.028
8.08
8.072
8.064
8.028
8.056
8.076
8.064
8.036
8.064
8.076
8.052
8.024
8.036
8.068
8.06
8.036
8.032
8.068
8.076
8.024
7.996
8.048
8.068
8.028
8.004
8.024
8.06
8.044
8.028
8.048
8.052
8.028
8.008
8.024
8.064
8.04
8.012
8.016
8.064
8.044
8.02
8.004
8.048
8.044
8.04
8.02
8.048
8.064
8.056
8.012
8.044
8.052
8.028
8.028
8.052
8.072
8.028
8.02
8.048
8.06
8.048
8.024
8.012
8.056
8.048
8.012
8.032
8.044
8.048
8.024
8.016
8.064
8.06
8.016
7.996
8.048
8.048
8.028
8.02
8.048
8.06
8.024
8.028
8.04
8.056
8.024
8.04
8.028
8.028
8.036
8.032
8.036
8.04
8.052
8.032
8.004
8.06
8.072
8.04
8.012
8.032
8.064
8.048
8.028
8.084
8.184
8.116
8.128
8.14
8.12
8.044
8.144
8.192
8.236
8.22
8.152
8.112
8.132
8.128
8.076
8.052
8.072
8.092
8.044
8.016
8.032
8.024
7.98
7.988
8
8.032
7.996
7.972
7.996
8.012
8.028
7.968
7.916
7.872
7.912
8.016
8.3
8.788
9.34
9.94
10.316
10.124
9.516
8.968
8.464
8.044
7.86
7.92
8.016
8.096
8.124
8.148
8.104
8.108
8.128
8.116
8.076
8.08
8.108
8.1
8.092
8.072
8.104
8.124
8.092
8.088
8.12
8.116
8.08
8.064
8.152
8.176
8.14
8.104
8.144
8.188
8.164
8.144
8.156
8.18
8.192
8.184
8.196
8.212
8.24
8.208
8.208
8.284
8.292
8.256
8.256
8.344
8.356
8.36
8.368
8.412
8.456
8.444
8.484
8.536
8.568
8.608
8.64
8.696
8.752
8.744
8.792
8.808
8.896
8.928
8.932
8.94
9.016
9.072
9.06
9.032
9.064
9.072
9.032
8.996
8.96
8.924
8.82
8.716
8.704
8.648
8.548
8.452
8.404
8.4
8.312
8.24
8.204
8.216
8.2
8.164
8.112
8.14
8.132
8.104
8.092
8.112
8.12
8.08
8.052
8.108
8.088
8.068
8.064
8.08
8.096
8.076
8.052
8.032
8.104
8.116
8.088
8.084
8.076
8.084
8.088
8.08
8.12
8.104
8.08
8.072
8.112
8.124
8.08
8.076
8.104
8.116
8.088
8.056
8.056
8.092
8.076
8.064
8.08
8.084
8.084
8.056
8.048
8.088
8.052
8.044
8.04
8.064
8.088
8.048
8.012
8.076
8.072
8.036
8.032
8.04
8.048
8.024
8.008
8.048
8.048
8.032
8.016
8.024
8.056
8.036
8.028
8.016
8.068
8.044
8.02
7.996
8.024
