7.876
8.024
8.144
8
7.88
8.02
8.172
8.048
7.896
8.012
8.18
8.108
7.968
8.012
8.16
8.148
7.992
8.004
8.204
8.224
8.048
8.004
8.22
8.276
8.136
8.032
8.224
8.36
8.204
8.096
8.24
8.42
8.316
8.2
8.324
8.492
8.436
8.328
8.432
8.628
8.604
8.46
8.516
8.76
8.824
8.668
8.66
8.832
8.94
8.824
8.76
8.928
9.088
8.928
8.784
8.916
9.024
8.836
8.66
8.66
8.76
8.628
8.384
8.388
8.484
8.44
8.188
8.192
8.288
8.296
8.088
8.036
8.184
8.216
8.052
7.928
8.108
8.2
8.08
7.924
8.064
8.212
8.064
7.912
8.02
8.192
8.108
7.968
7.976
8.148
8.144
7.98
7.972
8.156
8.152
7.98
7.936
8.104
8.192
8.044
7.924
8.076
8.204
8.06
7.92
8.032
8.212
8.084
7.924
8.016
8.148
8.084
7.936
7.988
8.132
8.1
7.936
7.948
8.112
8.148
7.948
7.916
8.06
8.176
7.988
7.888
8.02
8.116
7.98
7.872
8
8.128
8.016
7.884
7.988
8.164
8.112
7.984
8.032
8.224
8.184
7.984
7.988
8.208
8.264
8.12
8.012
8.156
8.24
8.044
7.912
8.048
8.188
8.008
7.868
7.972
8.12
7.976
7.808
7.876
8.064
7.984
7.852
7.86
8.036
8.032
7.868
7.86
8.012
8.004
7.764
7.7
7.98
8.268
8.512
8.916
9.68
10.348
10.196
9.532
9.096
8.76
8.108
7.656
7.784
8.024
8.012
7.94
8.016
8.172
8.14
7.948
7.948
8.108
8.152
7.964
7.92
8.096
8.192
8.012
7.924
8.072
8.196
8.04
7.896
8.084
8.22
8.08
7.956
8.056
8.208
8.12
8
8.06
8.24
8.24
8.068
8.044
8.252
8.288
8.12
8.1
8.256
8.34
8.196
8.112
8.3
8.428
8.304
8.204
8.368
8.568
8.456
8.344
8.464
8.684
8.628
8.508
8.592
8.78
8.812
8.664
8.704
8.88
8.952
8.82
8.812
8.98
9.092
8.892
8.808
8.964
9.048
8.848
8.644
8.72
8.788
8.632
8.38
8.412
8.512
8.4
8.188
8.168
8.336
8.264
8.08
8.028
8.18
8.208
8.012
7.96
8.1
8.192
8.024
7.916
8.064
8.196
8.056
7.936
8.06
8.188
8.06
7.94
8.024
8.192
8.112
7.96
8
8.204
8.14
7.972
7.956
8.148
8.176
8.012
7.94
8.1
8.192
8.048
7.936
8.088
8.196
8.004
7.9
8.064
8.18
8.076
7.912
8.024
8.18
8.104
7.944
7.976
8.164
8.128
7.972
7.944
8.116
8.16
8.004
7.928
8.084
8.18
8.016
7.9
8.036
8.18
8.036
7.9
8.028
8.16
8.068
7.9
7.984
8.112
8.076
7.928
7.94
8.128
8.072
7.948
7.932
8.104
8.124
7.952
7.876
8.044
8.152
7.956
7.856
8.016
8.172
8.008
7.864
7.984
8.128
8.016
7.872
7.948
8.116
8.048
7.908
7.94
8.104
8.092
7.9
7.9
8.068
8.116
7.928
7.852
8.008
8.124
7.956
7.864
8
8.132
7.972
7.852
7.992
8.124
8.012
7.852
7.972
8.104
8.056
7.88
7.912
8.108
8.072
7.904
7.88
8.044
8.096
7.932
7.848
8.032
8.104
7.936
7.848
8.008
8.14
7.972
7.832
7.968
8.144
8.008
7.872
7.936
8.08
8.024
7.888
7.932
8.092
8.072
7.92
7.884
8.048
8.088
7.932
7.852
8.016
8.112
7.964
7.872
8.064
8.204
8.096
7.928
8.024
8.172
8.092
7.988
8.08
8.188
8.096
7.94
7.968
8.088
8.02
7.908
7.876
8.048
8.072
7.872
7.792
7.92
8.044
7.856
7.744
7.884
8.028
7.876
7.752
7.864
8.012
7.868
7.616
7.688
7.936
8.068
8.312
8.856
9.672
10.232
10.096
9.5
9.144
8.712
8.036
7.576
7.764
7.992
7.884
7.8
7.976
8.112
7.944
7.8
7.908
8.064
7.94
7.8
7.86
8.02
7.972
7.812
7.832
7.992
8.024
7.848
7.812
7.988
8.028
7.872
7.796
7.988
8.08
7.9
7.804
7.972
8.128
7.984
7.856
7.956
8.116
8.032
7.892
7.964
8.132
8.084
7.956
8.004
8.144
8.172
8.024
8.032
8.228
8.312
8.14
8.12
8.312
8.444
8.336
8.216
8.412
8.564
8.484
8.368
8.544
8.712
8.616
8.528
8.636
8.836
8.788
8.644
8.72
8.872
8.888
8.7
8.644
8.792
8.8
8.572
8.448
8.528
8.564
8.336
8.16
8.236
8.316
8.096
7.936
8.016
8.152
7.976
7.82
7.896
8.048
7.968
7.796
7.804
7.968
7.984
7.808
7.76
7.952
7.996
7.836
7.752
7.876
8.004
7.844
7.728
7.88
8.016
7.88
7.7
7.816
8.016
7.904
7.74
7.832
7.976
7.92
7.78
7.772
7.944
7.924
7.772
7.756
7.92
7.948
7.784
7.696
7.868
7.976
7.804
7.668
7.832
7.96
7.82
7.676
7.792
7.952
7.816
7.696
7.752
7.94
7.856
7.688
7.696
7.896
7.868
7.7
7.664
7.848
7.884
7.692
7.64
7.808
7.904
7.728
7.62
7.772
7.876
7.764
7.616
7.748
7.868
7.784
7.616
7.716
7.876
7.836
7.664
7.684
7.852
7.88
7.684
7.664
7.832
7.9
7.736
7.648
7.784
7.9
7.76
7.632
7.784
7.932
7.764
7.628
7.756
7.896
7.804
7.656
7.716
7.876
7.832
7.684
7.7
7.88
7.916
7.772
7.716
7.888
7.956
7.828
7.76
7.956
8.036
7.844
7.712
7.82
7.964
7.82
7.668
7.788
7.892
7.792
7.652
7.68
7.844
7.784
7.62
7.644
7.804
7.82
7.668
7.632
7.808
7.86
7.64
7.472
7.604
7.808
7.868
8.132
8.824
9.572
10.024
9.924
9.5
9.068
8.488
7.812
7.532
7.704
7.764
7.676
7.724
7.952
7.956
7.764
7.7
7.868
7.944
7.78
7.692
7.824
7.968
7.8
7.684
7.824
7.964
7.836
7.708
7.832
7.984
7.892
7.748
7.8
7.956
7.936
7.776
7.788
7.992
7.996
7.856
7.816
8.008
8.06
7.884
7.844
8.008
8.112
7.972
7.876
8.036
8.216
8.088
7.952
8.088
8.264
8.196
8.096
8.184
8.352
8.352
8.244
8.3
8.504
8.528
8.388
8.396
8.62
8.696
8.556
8.5
8.704
8.856
8.7
8.6
8.756
8.884
8.748
8.608
8.64
8.744
8.6
8.392
8.372
8.484
8.352
8.144
8.116
8.22
8.16
7.976
7.88
8.032
8.088
7.892
7.78
7.92
8.028
7.848
7.756
7.86
8
7.88
7.756
7.844
7.996
7.904
7.764
7.82
7.992
7.948
7.776
7.792
7.98
8.004
7.856
7.776
7.948
8.032
7.844
7.776
7.932
8.048
7.884
7.772
7.904
8.056
7.916
7.756
7.872
8.04
7.94
7.796
7.852
8.02
7.984
7.824
7.82
7.976
7.98
7.824
7.796
7.952
8.036
7.812
7.756
7.916
8.036
7.86
7.724
7.892
8.02
7.876
7.744
7.836
8
7.908
7.752
7.82
7.98
7.952
7.776
7.796
7.972
7.968
7.804
7.756
7.94
7.992
7.828
7.736
7.892
8.028
7.872
7.772
7.88
8.02
7.884
7.764
7.872
8.008
7.892
7.768
7.816
8.016
7.968
7.796
7.768
7.968
8.008
7.84
7.768
7.932
8.004
7.86
7.764
7.912
8.028
7.88
7.772
7.9
8.028
7.936
7.788
7.884
8.036
7.944
7.804
7.872
8
7.992
7.856
7.852
8
8.028
7.888
7.868
8.076
8.136
7.976
7.9
8.076
8.192
8.072
7.976
8.072
8.212
8.052
7.896
7.992
8.136
8.028
7.892
7.928
8.068
8.024
7.844
7.852
8
8.024
7.864
7.82
7.992
8.088
7.916
7.804
7.952
8.004
7.792
7.716
7.964
8.348
8.724
9.132
9.904
10.396
10.052
9.296
8.832
8.496
7.984
7.652
7.796
8.044
8.128
8.008
7.976
8.116
8.188
8.02
7.932
8.072
8.16
8.028
7.9
8.048
8.184
8.084
7.94
8.044
8.22
8.128
7.996
8.032
8.204
8.176
8.008
8.004
8.176
8.22
8.08
8.032
8.184
8.26
8.096
8.04
8.2
8.308
8.172
8.064
8.2
8.356
8.26
8.128
8.244
8.412
8.34
8.22
8.32
8.464
8.472
8.364
8.42
8.564
8.624
8.508
8.528
8.696
8.812
8.68
8.636
8.824
8.98
8.856
8.776
8.936
9.08
8.988
8.872
8.964
9.084
8.964
8.824
8.804
8.888
8.812
8.588
8.5
8.6
8.564
8.304
8.184
8.328
8.372
8.164
8.016
8.148
8.248
8.08
7.972
8.044
8.184
8.056
7.948
8.032
8.16
8.076
7.952
7.976
8.16
8.124
7.984
7.964
8.12
8.164
8.036
7.988
8.104
8.188
8.064
7.964
8.12
8.212
8.076
7.96
8.092
8.236
8.096
7.964
8.096
8.24
8.128
7.972
8.044
8.188
8.192
8.02
8.016
8.148
8.188
8.012
7.98
8.156
8.216
8.068
7.956
8.12
8.232
8.068
7.928
8.076
8.184
8.08
7.94
8.044
8.192
8.128
7.96
8.028
8.168
8.144
7.968
7.972
8.132
8.136
8
7.944
8.104
8.208
8.036
7.92
8.068
8.188
8.056
7.924
8.06
8.18
8.076
7.948
8.044
8.196
8.088
7.964
8.028
8.188
8.148
7.996
7.996
8.136
8.18
7.996
7.968
8.12
8.208
8.036
7.964
8.108
8.22
8.064
7.952
8.096
8.204
8.096
7.94
8.044
8.192
8.128
7.996
8.02
8.192
8.172
8.032
8.008
8.164
8.188
8.048
7.96
8.144
8.2
8.076
7.996
8.164
8.316
8.156
8.044
8.192
8.34
8.212
8.12
8.236
8.384
8.26
8.076
8.116
8.252
8.204
8.052
8.048
8.236
8.224
8.06
7.956
8.104
8.2
8.032
7.952
8.088
8.228
8.076
7.944
8.088
8.192
8.008
7.812
7.944
8.252
8.488
8.808
9.392
10.228
10.508
10.008
9.368
9.016
8.584
7.956
7.792
8.04
8.24
8.128
8.088
8.22
8.324
8.176
8.044
8.152
8.3
8.164
8.036
8.152
8.28
8.204
8.052
8.1
8.248
8.244
8.104
8.092
8.256
8.28
8.128
8.052
8.204
8.32
8.136
8.056
8.196
8.348
8.184
8.056
8.224
8.404
8.252
8.1
8.228
8.4
8.336
8.22
8.272
8.436
8.436
8.312
8.292
8.496
8.58
8.416
8.364
8.592
8.72
8.58
8.5
8.68
8.872
8.748
8.644
8.808
9
8.924
8.824
8.924
9.096
9.048
8.916
8.992
9.128
9.096
8.888
8.812
8.964
8.912
8.688
8.54
8.656
8.652
8.428
8.248
8.348
8.42
8.22
8.068
8.18
8.292
8.144
7.968
8.068
8.212
8.124
7.948
7.952
8.132
8.136
7.92
7.924
8.084
8.148
7.976
7.9
8.06
8.152
7.988
7.9
8.04
8.168
7.992
7.88
8.012
8.168
8.032
7.864
7.948
8.116
8.06
7.912
7.928
8.088
8.052
7.892
7.86
8.032
8.076
7.892
7.824
8.032
8.088
7.94
7.8
7.972
8.116
7.948
7.804
7.912
8.088
7.952
7.824
7.888
8.06
7.988
7.796
7.856
8.012
7.996
7.808
7.788
7.98
8.028
7.82
7.752
7.916
8.008
7.86
7.748
7.892
8.02
7.904
7.756
7.86
8.012
7.884
7.768
7.848
7.992
7.908
7.764
7.816
7.964
7.948
7.772
7.756
7.912
7.964
7.772
7.712
7.884
7.972
7.816
7.716
7.872
8.032
7.904
7.776
7.896
8.052
7.972
7.856
7.952
8.096
7.996
7.832
7.848
7.996
7.972
7.8
7.76
7.904
7.956
7.78
7.668
7.824
7.932
7.78
7.664
7.808
7.976
7.824
7.648
7.788
7.952
7.74
7.516
7.604
7.9
8.116
8.432
9.028
9.86
10.184
9.78
9.152
8.836
8.456
7.784
7.496
7.72
7.932
7.824
7.764
7.928
8.068
7.92
7.788
7.888
8.028
7.912
7.796
7.868
8.04
7.968
7.828
7.848
8.04
8.04
7.868
7.836
8.04
8.084
7.916
7.836
8.016
8.096
7.976
7.872
8.012
8.148
8.012
7.896
8.036
8.208
8.088
7.948
8.044
8.232
8.176
8.024
8.076
8.256
8.252
8.108
8.096
8.284
8.372
8.252
8.2
8.396
8.52
8.396
8.296
8.516
8.66
8.564
8.476
8.62
8.832
8.748
8.592
8.704
8.924
8.868
8.716
8.744
8.928
8.884
8.68
8.636
8.748
8.72
8.5
8.348
8.444
8.508
8.256
8.064
8.168
8.292
8.108
7.936
8.028
8.152
8.02
7.868
7.92
8.084
8.04
7.872
7.884
8.048
8.044
7.872
7.852
8.004
8.096
7.892
7.82
7.988
8.1
7.956
7.812
7.984
8.1
7.972
7.852
7.968
8.096
8.012
7.848
7.96
8.12
8.008
7.88
7.868
8.076
8.068
7.892
7.844
8.04
8.084
7.924
7.816
7.988
8.104
7.912
7.8
7.984
8.092
7.948
7.792
7.936
8.1
7.976
7.816
7.888
8.032
7.976
7.812
7.852
8.024
8.008
7.82
7.784
7.968
8.02
7.86
7.788
7.944
8.064
7.888
7.756
7.932
8.1
7.928
7.768
7.892
8.048
7.932
7.788
7.848
8.044
7.96
7.804
7.828
8.028
8.016
7.884
7.872
8.072
8.12
7.92
7.848
8.072
8.184
8.048
7.884
8.044
8.148
7.988
7.824
7.96
8.088
7.996
7.832
7.892
8.024
7.944
7.8
7.816
8
7.988
7.804
7.764
7.964
8.04
7.86
7.756
7.848
7.872
7.776
7.812
8.296
8.908
9.328
9.848
10.212
10.012
9.308
8.656
8.244
7.936
7.78
7.72
7.828
8.06
8.096
7.96
7.892
8.064
8.108
7.92
7.864
8.02
8.14
7.944
7.828
7.984
8.148
8
7.844
7.964
8.148
8.052
7.864
7.952
8.124
8.1
7.94
7.96
8.144
8.16
7.996
7.944
8.132
8.216
8.072
7.988
8.14
8.26
8.112
8.024
8.164
8.34
8.232
8.096
8.224
8.388
8.34
8.216
8.308
8.464
8.448
8.32
8.392
8.608
8.64
8.508
8.492
8.708
8.844
8.68
8.62
8.82
8.972
8.808
8.756
8.904
9.076
8.916
8.764
8.86
8.984
8.836
8.596
8.628
8.736
8.604
8.348
8.32
8.412
8.384
8.16
8.076
8.2
8.24
8.052
7.956
8.084
8.172
7.988
7.876
8.024
8.14
8.016
7.848
7.96
8.124
8.044
7.852
7.968
8.136
8.092
7.928
7.916
8.1
8.088
7.924
7.892
8.1
8.144
7.976
7.86
8.04
8.176
8.012
7.856
8
8.172
8.016
7.864
7.984
8.156
8.044
7.924
7.936
8.136
8.084
7.908
7.936
8.112
8.108
7.932
7.872
8.06
8.112
7.936
7.868
8.004
8.14
7.964
7.86
7.98
8.136
7.984
7.836
7.956
8.104
7.98
7.84
7.928
8.108
8.044
7.868
7.888
8.072
8.084
7.896
7.84
8.016
8.076
7.928
7.848
7.996
8.104
7.932
7.804
7.964
8.096
7.972
7.828
7.924
8.088
7.984
7.808
7.876
8.056
8.024
7.884
7.908
8.1
8.14
7.972
7.916
8.108
8.208
8.028
7.948
8.112
8.216
7.996
7.852
7.96
8.128
8
7.824
7.94
8.084
7.956
7.776
7.84
8.004
7.96
7.812
7.844
7.976
7.988
7.844
7.784
7.952
7.908
7.696
7.672
8.024
8.48
8.812
9.272
10.04
10.396
9.804
9.088
8.68
8.344
7.808
7.632
7.812
8.04
8.068
7.924
7.944
8.132
8.116
7.924
7.872
8.056
8.116
7.944
7.86
8.036
8.144
7.988
7.868
8.016
8.188
8.052
7.924
8.036
8.172
8.104
7.956
7.996
8.188
8.148
8.004
8.012
8.184
8.216
8.08
8.036
8.192
8.268
8.108
8.048
8.236
8.348
8.184
8.08
8.248
8.4
8.284
8.188
8.312
8.5
8.448
8.328
8.408
8.604
8.62
8.492
8.548
8.744
8.776
8.656
8.664
8.844
8.94
8.824
8.768
8.94
9.076
8.928
8.808
8.928
9.048
8.864
8.688
8.72
8.804
8.64
8.456
8.444
8.5
8.36
8.2
8.164
8.28
8.188
8.06
8.036
8.084
8.128
7.996
7.94
8.028
8.096
8.004
7.928
7.992
8.084
8.008
7.916
8
8.104
8.024
7.936
7.968
8.068
8.052
7.924
7.936
8.068
8.072
7.932
7.892
8.04
8.092
7.968
7.884
8.012
8.084
7.956
7.86
7.984
8.096
7.944
7.844
7.948
8.056
7.992
7.852
7.9
8.024
7.984
7.876
7.868
7.988
7.992
7.872
7.836
7.94
7.964
7.828
7.804
7.892
7.984
7.872
7.776
7.888
7.948
7.88
7.78
7.852
7.932
7.856
7.784
7.82
7.92
7.856
7.752
7.796
7.912
7.872
7.772
7.76
7.852
7.916
7.788
7.7
7.836
7.924
7.812
7.716
7.816
7.88
7.812
7.728
7.8
7.86
7.816
7.728
7.78
7.864
7.812
7.74
7.732
7.836
7.828
7.728
7.724
7.808
7.864
7.78
7.76
7.856
7.924
7.836
7.788
7.9
7.988
7.908
7.824
7.892
7.916
7.848
7.74
7.76
7.868
7.836
7.728
7.74
7.816
7.788
7.712
7.652
7.744
7.812
7.68
7.672
7.752
7.828
7.704
7.604
7.596
7.624
7.616
7.676
8.068
8.652
9.228
9.772
9.996
9.716
9.08
8.556
8.084
7.72
7.6
7.596
7.644
7.82
7.888
7.832
7.78
7.864
7.912
7.824
7.744
7.812
7.896
7.804
7.74
7.824
7.896
7.852
7.724
7.832
7.936
7.896
7.772
7.796
7.924
7.944
7.856
7.812
7.94
7.984
7.88
7.86
8
8.072
7.944
7.908
7.996
8.1
8.024
7.956
8.048
8.16
8.12
8.044
8.124
8.22
8.228
8.18
8.164
8.324
8.352
8.292
8.3
8.404
8.484
8.416
8.452
8.548
8.64
8.588
8.592
8.696
8.804
8.744
8.704
8.764
8.864
8.824
8.74
8.764
8.804
8.736
8.592
8.54
8.584
8.508
8.348
8.26
8.336
8.292
8.132
8.036
8.12
8.12
8.008
7.908
7.96
8.044
7.952
7.876
7.944
8.004
7.936
7.884
7.928
8.016
7.972
7.86
7.896
7.992
8
7.896
7.884
7.996
8.032
7.932
7.892
7.968
8.036
7.952
7.892
7.96
8.052
7.952
7.896
7.94
8.028
7.972
7.888
7.912
8.02
8
7.9
7.884
8.004
8.004
7.932
7.896
7.988
7.992
7.912
7.884
7.952
8.012
7.924
7.872
7.936
8.004
7.916
7.848
7.928
7.984
7.936
7.852
7.896
8.004
7.956
7.88
7.892
7.992
7.96
7.896
7.868
7.972
7.992
7.908
7.86
7.96
7.996
7.916
7.844
7.92
8.012
7.94
7.848
7.892
7.964
7.936
7.864
7.892
7.96
7.916
7.884
7.88
8
7.972
7.884
7.86
7.968
8.024
7.972
7.932
8.04
8.092
8.004
7.996
8.096
8.168
8.048
7.968
8.024
8.076
8.008
7.932
7.98
8.048
8.016
7.9
7.884
7.972
7.98
7.892
7.848
7.936
7.972
7.9
7.836
7.92
8.004
7.872
7.748
7.768
7.924
7.992
8.268
8.812
9.452
10.064
10.224
9.82
9.32
8.796
8.208
7.796
7.788
7.904
7.904
7.952
8.084
8.112
7.988
7.936
8.044
8.084
7.996
7.936
8.028
8.096
8.016
7.932
7.992
8.104
8.048
7.968
8.02
8.104
8.092
7.992
8.036
8.092
8.152
8.036
8.016
8.132
8.176
8.076
8.04
8.132
8.228
8.144
8.064
8.144
8.248
8.204
8.128
8.2
8.32
8.276
8.196
8.276
8.384
8.396
8.316
8.348
8.492
8.552
8.468
8.46
8.576
8.688
8.62
8.608
8.716
8.848
8.792
8.72
8.844
8.964
8.912
8.86
8.908
9.012
8.952
8.836
8.796
8.888
8.788
8.636
8.548
8.584
8.504
8.344
8.252
8.288
8.268
8.104
8.032
8.112
8.152
8.016
7.928
7.996
8.068
7.98
7.884
7.956
8.032
7.992
7.888
7.908
8.012
7.98
7.9
7.9
7.98
7.992
7.904
7.896
7.988
8.02
7.932
7.868
7.964
8.044
7.928
7.864
7.956
8.04
7.932
7.86
7.916
8.028
7.944
7.872
7.904
8.004
7.956
7.84
7.848
7.956
7.952
7.848
7.796
7.912
7.984
7.844
7.772
7.888
7.976
7.856
7.764
7.86
7.952
7.828
7.76
7.836
7.936
7.86
7.752
7.796
7.892
7.872
7.752
7.772
7.868
7.912
7.788
7.716
7.828
7.912
7.752
7.688
7.832
7.9
7.772
7.644
7.764
7.912
7.808
7.636
7.744
7.876
7.804
7.66
7.704
7.852
7.848
7.712
7.704
7.892
7.904
7.744
7.72
7.912
8.008
7.828
7.724
7.868
7.936
7.824
7.672
7.76
7.9
7.772
7.636
7.684
7.824
7.728
7.596
7.624
7.788
7.772
7.616
7.628
7.804
7.824
7.636
7.524
7.592
7.668
7.604
7.736
8.284
8.98
9.508
9.82
9.828
9.428
8.804
8.24
7.768
7.632
7.56
7.504
7.632
7.856
7.86
7.712
7.692
7.86
7.868
7.728
7.644
7.816
7.9
7.772
7.648
7.804
7.916
7.768
7.652
7.768
7.928
7.82
7.676
7.76
7.948
7.876
7.728
7.748
7.916
7.936
7.788
7.764
7.92
7.956
7.804
7.736
7.932
8.024
7.872
7.78
7.968
8.112
7.98
7.868
8.02
8.188
8.092
7.968
8.092
8.252
8.252
8.12
8.188
8.412
8.428
8.296
8.304
8.508
8.604
8.448
8.396
8.604
8.748
8.58
8.488
8.648
8.84
8.668
8.496
8.588
8.7
8.532
8.328
8.344
8.428
8.308
8.06
8.048
8.152
8.08
7.88
7.852
7.976
8.012
7.8
7.708
7.86
7.972
7.808
7.672
7.82
7.964
7.82
7.704
7.824
7.932
7.832
7.696
7.776
7.952
7.896
7.728
7.76
7.928
7.912
7.748
7.712
7.896
7.94
7.788
7.704
7.84
7.972
7.808
7.704
7.848
7.988
7.808
7.684
7.796
7.964
7.848
7.676
7.772
7.932
7.872
7.712
7.716
7.884
7.908
7.72
7.68
7.872
7.92
7.732
7.672
7.844
7.952
7.8
7.66
7.824
7.964
7.808
7.68
7.792
7.956
7.84
7.688
7.756
7.924
7.86
7.7
7.744
7.92
7.912
7.732
7.712
7.876
7.936
7.78
7.708
7.912
8.048
7.908
7.756
7.904
8.068
7.936
7.86
7.968
8.108
7.964
7.792
7.852
7.996
7.916
7.764
7.792
7.968
7.952
7.732
7.684
7.856
7.924
7.756
7.68
7.828
7.94
7.788
7.676
7.828
7.964
7.72
7.544
7.688
7.968
8.072
8.396
8.992
9.804
10.212
9.928
9.336
8.96
8.488
7.804
7.52
7.792
7.924
7.824
7.78
7.988
8.088
7.896
7.756
7.948
8.072
7.916
7.74
7.888
8.04
7.952
7.804
7.868
8.032
7.996
7.812
7.852
8.024
8.048
7.876
7.828
8.02
8.088
7.924
7.836
8.024
8.152
8.012
7.868
8.04
8.192
8.072
7.932
8.072
8.208
8.136
8.044
8.112
8.3
8.26
8.116
8.152
8.372
8.392
8.236
8.248
8.46
8.556
8.424
8.368
8.584
8.716
8.6
8.524
8.704
8.868
8.756
8.656
8.8
8.996
8.872
8.74
8.82
8.964
8.92
8.692
8.656
8.756
8.7
8.46
8.368
8.468
8.472
8.224
8.112
8.224
8.284
8.072
7.94
8.076
8.204
8.028
7.844
7.968
8.16
8.044
7.884
7.94
8.104
8.036
7.888
7.888
8.076
8.064
7.904
7.88
8.024
8.104
7.94
7.884
8.004
8.152
7.996
7.876
7.996
8.136
8.004
7.872
8
8.136
8.044
7.912
7.976
8.08
8.068
7.908
7.936
8.072
8.104
7.932
7.884
8.064
8.136
7.928
7.844
7.996
8.128
7.96
7.832
7.976
8.112
7.96
7.844
7.96
8.104
7.984
7.836
7.916
8.096
8.024
7.848
7.888
8.06
8.028
7.884
7.852
8.036
8.056
7.92
7.816
8.004
8.072
7.892
7.804
7.956
8.084
7.928
7.804
7.924
8.096
7.952
7.828
7.92
8.104
8.076
7.972
7.964
8.124
8.12
7.964
7.98
8.164
8.244
8.036
7.896
8.076
8.152
7.96
7.82
7.972
8.12
7.956
7.816
7.908
8.052
7.944
7.828
7.864
8.028
7.96
7.816
7.856
8.044
8.028
7.84
7.736
7.856
7.944
7.888
8.068
8.696
9.332
9.848
10.124
10.112
9.62
8.948
8.34
7.956
7.9
7.876
7.84
7.992
8.184
8.112
7.972
7.968
8.152
8.144
7.96
7.94
8.104
8.172
8.004
7.92
8.104
8.228
8.012
7.912
8.08
8.212
8.06
7.948
8.06
8.232
8.124
7.968
8.056
8.228
8.2
8.052
8.076
8.248
8.248
8.112
8.096
8.252
8.332
8.188
8.1
8.308
8.412
8.276
8.16
8.356
8.508
8.364
8.272
8.416
8.58
8.532
8.396
8.496
8.68
8.68
8.572
8.624
8.824
8.84
8.732
8.744
8.952
9.024
8.856
8.788
8.992
9.072
8.9
8.748
8.852
8.944
8.74
8.532
8.584
8.672
8.492
8.288
8.284
8.388
8.296
8.068
8.076
8.232
8.184
8
7.936
8.112
8.176
7.976
7.864
8.028
8.156
7.992
7.892
8.012
8.132
8.004
7.856
7.988
8.148
8.016
7.876
7.948
8.12
8.064
7.9
7.9
8.06
8.072
7.9
7.86
8.036
8.076
7.912
7.816
8.004
8.1
7.92
7.84
7.968
8.088
7.948
7.812
7.9
8.068
7.98
7.824
7.856
8.024
7.976
7.82
7.812
7.972
7.996
7.812
7.76
7.968
7.988
7.812
7.74
7.9
8.024
7.84
7.712
7.86
7.988
7.848
7.736
7.836
7.98
7.876
7.736
7.804
7.932
7.884
7.724
7.772
7.936
7.94
7.76
7.72
7.884
7.956
7.784
7.708
7.848
7.96
7.796
7.676
7.832
7.932
7.812
7.672
7.788
7.932
7.848
7.724
7.804
8.02
7.96
7.768
7.792
7.956
8.032
7.908
7.84
8
8.036
7.832
7.728
7.868
7.984
7.8
7.66
7.812
7.956
7.788
7.628
7.732
7.9
7.792
7.644
7.712
7.864
7.828
7.672
7.68
7.832
7.764
7.508
7.508
7.812
8.188
8.452
8.972
9.812
10.212
9.736
9.028
8.684
8.38
7.74
7.436
7.604
7.864
7.8
7.724
7.812
7.948
7.908
7.732
7.748
7.936
7.948
7.772
7.744
7.912
7.992
7.8
7.712
7.9
8.016
7.868
7.752
7.876
8.032
7.896
7.776
7.888
8.064
7.944
7.836
7.904
8.08
8.036
7.868
7.888
8.072
8.108
7.936
7.904
8.112
8.164
8.012
7.964
8.14
8.26
8.1
8.036
8.204
8.368
8.252
8.164
8.296
8.492
8.42
8.312
8.4
8.604
8.584
8.472
8.52
8.716
8.78
8.612
8.628
8.812
8.908
8.748
8.656
8.804
8.9
8.672
8.536
8.632
8.696
8.492
8.276
8.292
8.408
8.24
8.048
8.072
8.184
8.076
7.908
7.904
8.052
8.052
7.868
7.836
8
8.048
7.868
7.808
7.956
8.08
7.912
7.78
7.936
8.048
7.928
7.804
7.912
8.052
7.928
7.824
7.892
8.076
8
7.84
7.844
8.028
8.036
7.82
7.808
7.976
8.072
7.832
7.772
7.932
8.06
7.876
7.764
7.9
8.044
7.884
7.744
7.844
8.044
7.932
7.776
7.844
8.004
7.98
7.8
7.788
7.956
8
7.796
7.784
7.94
8.008
7.832
7.752
7.916
8.008
7.844
7.724
7.848
8.028
7.844
7.732
7.852
7.98
7.892
7.748
7.812
7.964
7.92
7.776
7.796
8.008
8.052
7.848
7.844
7.992
8.068
7.856
7.848
8.06
8.172
7.976
7.816
7.94
8.088
7.9
7.76
7.86
8.028
7.892
7.748
7.82
7.96
7.88
7.68
7.712
7.884
7.908
7.712
7.684
7.876
7.94
7.784
7.66
7.748
7.828
7.668
7.64
8.02
8.612
8.996
9.492
10.104
10.152
9.476
8.756
8.376
8.028
7.676
7.572
7.68
7.924
7.984
7.848
7.788
7.956
8.016
7.816
7.724
7.908
8.016
7.856
7.74
7.896
8.048
7.876
7.748
7.848
8.052
7.932
7.772
7.852
8.016
7.984
7.84
7.844
8.036
8.072
7.872
7.86
8.028
8.104
7.92
7.86
8.064
8.188
8.036
7.928
8.064
8.24
8.096
8.008
8.136
8.3
8.236
8.104
8.192
8.4
8.368
8.228
8.308
8.508
8.544
8.412
8.408
8.632
8.728
8.568
8.532
8.712
8.884
8.724
8.644
8.8
8.944
8.796
8.664
8.736
8.848
8.712
8.496
8.484
8.612
8.492
8.256
8.196
8.328
8.292
8.06
7.976
8.128
8.148
8.004
7.884
8.004
8.132
7.932
7.828
7.976
8.088
7.956
7.84
7.94
8.104
8.008
7.828
7.876
8.068
8.044
7.876
7.88
8.064
8.076
7.896
7.876
8.048
8.116
7.936
7.844
8.032
8.14
7.952
7.844
8.016
8.136
8.012
7.868
7.976
8.16
8.04
7.888
7.976
8.128
8.076
7.904
7.908
8.096
8.124
7.924
7.892
8.084
8.168
7.94
7.828
7.968
8.152
8.004
7.948
8.088
8.192
7.96
7.804
7.96
8.248
8.104
7.884
7.932
8.08
8.12
7.932
7.928
8.2
8.256
8.1
8.016
8.16
8.216
8.052
7.928
8.1
8.204
8.064
7.888
7.912
8.128
7.968
7.844
7.928
8.016
7.852
7.696
7.724
7.944
7.976
7.828
7.832
7.988
7.9
7.668
7.696
7.996
8.348
8.572
8.936
9.664
10.28
10.068
9.328
8.928
8.636
7.948
7.552
7.72
7.988
8.048
7.936
7.964
8.092
7.984
7.848
7.86
8.084
8.08
7.852
7.776
7.94
8.036
7.88
7.764
7.956
8.152
7.996
7.84
7.988
8.108
8.004
7.876
7.96
8.16
8.124
7.968
8
8.112
8.076
7.916
7.924
8.136
8.168
8.008
7.956
8.14
8.232
8.076
7.972
8.196
8.356
8.22
8.112
8.212
8.424
8.324
8.208
8.352
8.528
8.496
8.4
8.468
8.644
8.616
8.436
8.488
8.708
8.832
8.7
8.66
8.876
8.964
8.808
8.696
8.844
8.928
8.7
8.536
8.64
8.74
8.54
8.3
8.332
8.4
8.26
8.04
8.08
8.316
8.352
8.148
8.052
8.116
8.088
7.868
7.772
7.964
8.056
7.912
7.82
8.004
8.104
8.004
7.864
8.02
8.18
8.092
8.072
8.164
8.208
8.048
7.912
7.892
8
8.076
8.124
8.124
8.244
8.06
7.768
7.764
8.016
8.144
7.912
7.868
8.096
8.344
8.268
8.092
8.052
8.24
8.148
7.92
8.148
8.652
8.528
7.756
7.408
7.708
7.8
7.728
7.744
7.956
8.048
7.892
7.84
8.04
8.132
7.964
7.884
8.048
8.156
7.972
7.848
7.952
8.14
8.092
7.964
7.964
8.084
8.032
7.932
7.928
8.02
8.024
7.912
7.94
8.128
8.184
8.024
7.916
8.12
8.168
7.94
7.832
8.052
8.236
8.312
8.196
7.924
7.868
7.732
7.548
7.608
7.776
7.764
7.668
7.756
7.932
7.916
7.764
7.9
8.068
8
7.904
7.856
8.168
8.608
8.964
9.564
10.296
10.212
9.228
8.62
8.28
7.88
7.608
7.544
7.684
7.92
7.896
7.78
7.94
8.26
8.168
7.876
7.712
7.892
7.964
7.8
7.776
8.092
8.336
7.984
7.588
7.74
7.976
7.864
7.752
7.904
8.112
7.992
7.912
8.024
8.136
7.964
7.744
7.796
8.028
8.02
7.924
7.964
8.148
8.204
8.008
7.952
8.128
8.236
8.072
7.972
8.176
8.32
8.172
8.064
8.22
8.436
8.312
8.216
8.368
8.568
8.524
8.396
8.476
8.708
8.696
8.588
8.636
8.836
8.876
8.744
8.704
8.896
8.996
8.832
8.708
8.816
8.92
8.728
8.496
8.6
8.672
8.496
8.292
8.308
8.412
8.296
8.116
8.112
8.276
8.204
8
7.98
8.168
8.192
7.984
7.928
8.096
8.18
8.04
7.94
8.092
8.208
8.052
7.924
8.06
8.216
8.104
7.956
8.048
8.24
8.14
7.972
8.032
8.224
8.212
8.028
8
8.168
8.24
8.052
7.996
8.18
8.248
8.064
7.972
8.112
8.248
8.072
7.916
8.056
8.24
8.064
7.948
8
8.192
8.12
7.908
7.956
8.164
8.092
7.944
7.924
8.116
8.144
7.94
7.856
8.068
8.164
7.98
7.856
8.036
8.176
8.008
7.852
7.968
8.132
7.992
7.872
7.948
8.12
8.024
7.876
7.912
8.08
8.044
7.88
7.88
8.08
8.068
7.904
7.844
7.988
8.12
7.928
7.808
7.964
8.1
7.944
7.808
7.932
8.128
8.024
7.892
8.02
8.204
8.056
7.896
7.976
8.204
8.196
8.012
7.964
8.104
8.144
7.94
7.852
8.004
8.12
7.928
7.8
7.932
8.036
7.86
7.708
7.84
8.016
7.876
7.728
7.808
8
7.904
7.728
7.764
7.94
7.812
7.596
7.652
7.956
8.328
8.632
9.172
9.956
10.3
9.736
9.024
8.704
8.352
7.712
7.468
7.688
7.968
7.888
7.768
7.872
8.02
7.964
7.792
7.852
8.004
7.968
7.824
7.804
7.988
8.04
7.836
7.784
7.98
8.064
7.892
7.784
7.948
8.084
7.912
7.8
7.904
8.108
7.96
7.812
7.948
8.088
8.04
7.904
7.94
8.104
8.116
7.932
7.952
8.12
8.192
8.02
7.956
8.164
8.264
8.124
8.056
8.204
8.364
8.252
8.148
8.316
8.508
8.396
8.304
8.428
8.62
8.556
8.452
8.52
8.708
8.732
8.608
8.62
8.816
8.884
8.712
8.652
8.796
8.86
8.66
8.504
8.596
8.64
8.416
8.196
8.268
8.356
8.18
7.988
8.024
8.156
8.044
7.872
7.872
8.032
8.024
7.84
7.8
7.964
8.012
7.832
7.74
7.928
8.032
7.84
7.728
7.892
8.032
7.904
7.744
7.888
8.02
7.912
7.788
7.88
8.02
7.96
7.792
7.836
8.004
7.98
7.828
7.796
7.964
8.02
7.828
7.764
7.96
8.032
7.888
7.74
7.908
8.04
7.888
7.768
7.9
8.044
7.908
7.732
7.844
8.02
7.924
7.776
7.756
7.988
7.98
7.788
7.768
7.952
7.992
7.82
7.752
7.9
8.088
7.836
7.724
7.884
8.02
7.884
7.732
7.848
8.016
7.904
7.8
7.88
8.06
8.048
7.88
7.916
8.08
8.068
7.972
7.964
8.14
8.136
7.952
7.9
8.036
8.108
7.928
7.812
7.96
8.076
7.936
7.784
7.868
7.996
7.9
7.788
7.848
8.004
7.948
7.808
7.852
8
7.992
7.816
7.736
7.848
7.896
7.86
8.004
8.568
9.256
9.724
10.02
10.1
9.64
8.988
8.392
7.932
7.872
7.796
7.768
7.924
8.144
8.064
7.92
7.964
8.144
8.124
7.932
7.9
8.06
8.148
7.976
7.884
8.052
8.172
8.008
7.896
8.044
8.168
8.036
7.884
8.028
8.188
8.072
7.936
8.012
8.196
8.104
7.996
8.024
8.188
8.224
8.044
8.048
8.22
8.292
8.12
8.072
8.256
8.384
8.216
8.128
8.3
8.46
8.336
8.212
8.368
8.552
8.5
8.388
8.472
8.672
8.628
8.544
8.584
8.8
8.836
8.7
8.708
8.892
8.968
8.808
8.744
8.916
8.996
8.828
8.68
8.776
8.872
8.656
8.476
8.508
8.56
8.388
8.212
8.224
8.32
8.236
8.056
8.04
8.192
8.172
7.968
7.936
8.08
8.148
7.956
7.864
8.036
8.136
7.98
7.872
7.996
8.152
8.02
7.888
8.016
8.152
8.036
7.908
7.98
8.148
8.104
7.936
7.94
8.116
8.136
7.956
7.928
8.096
8.148
7.98
7.904
8.08
8.168
7.988
7.892
8.024
8.164
7.992
7.872
7.96
8.148
8.036
7.896
7.956
8.104
8.048
7.912
7.928
8.08
8.072
7.92
7.884
8.056
8.08
7.912
7.868
8.032
8.124
7.964
7.84
7.996
8.108
7.996
7.852
7.936
8.104
7.996
7.868
7.932
8.088
8.048
7.884
7.924
8.1
8.072
7.9
7.864
8.068
8.132
7.952
7.848
8.056
8.148
7.988
7.872
8.004
8.152
8.012
7.876
8.008
8.172
8.056
7.888
8.016
8.212
8.192
8.048
8.064
8.232
8.224
8.044
8.048
8.228
8.324
8.156
8.032
8.168
8.256
8.024
7.936
8.084
8.24
8.052
7.928
8.024
8.168
8.028
7.864
7.932
8.12
8.056
7.908
7.932
8.092
8.06
7.928
7.912
8.016
8
7.816
7.852
8.26
8.824
9.164
9.712
10.328
10.38
9.648
8.936
8.544
8.22
7.86
7.812
7.968
8.208
8.164
8.052
8.044
8.2
8.184
8.024
7.984
8.176
8.248
8.06
7.972
8.172
8.284
8.116
8.004
8.136
8.28
8.136
8.024
8.12
8.296
8.196
8.072
8.156
8.336
8.26
8.116
8.14
8.328
8.34
8.164
8.144
8.332
8.408
8.256
8.18
8.324
8.456
8.32
8.248
8.396
8.568
8.428
8.328
8.476
8.68
8.588
8.46
8.552
8.76
8.76
8.624
8.68
8.884
8.908
8.792
8.784
8.98
9.052
8.908
8.872
9.04
9.168
8.992
8.852
8.992
9.088
8.896
8.708
8.736
8.836
8.644
8.432
8.452
8.552
8.452
8.252
8.244
8.356
8.324
8.136
8.112
8.248
8.288
8.064
8.016
8.184
8.264
8.12
7.996
8.132
8.28
8.148
8.024
8.116
8.28
8.176
8.008
8.104
8.26
8.196
8.048
8.072
8.244
8.248
8.064
8.04
8.22
8.28
8.112
8.02
8.164
8.28
8.104
8.012
8.144
8.264
8.148
8.024
8.108
8.24
8.136
7.988
8.076
8.216
8.176
8.008
8.024
8.192
8.204
8.012
7.98
8.168
8.212
8.056
7.964
8.12
8.248
8.076
7.968
8.108
8.248
8.116
7.976
8.072
8.232
8.124
7.976
8.048
8.188
8.152
7.996
8.012
8.18
8.164
8.004
7.968
8.152
8.22
8.024
7.94
8.132
8.252
8.084
7.976
8.104
8.256
8.096
7.976
8.08
8.248
8.14
7.992
8.068
8.2
8.164
7.984
8.028
8.188
8.216
8.02
7.968
8.152
8.208
8.048
7.944
8.092
8.24
8.072
7.944
8.084
8.212
8.108
7.98
8.084
8.244
8.124
7.992
8.048
8.224
8.164
8
8
8.18
8.18
8.024
7.98
8.136
8.212
8.068
7.964
8.1
8.236
8.056
7.952
8.1
8.208
8.1
7.964
8.064
8.204
8.136
7.984
8.08
8.26
8.216
8.108
8.132
8.264
8.244
8.112
8.164
8.324
8.38
8.164
8.068
8.196
8.248
8.12
7.996
8.108
8.248
8.12
7.964
8.04
8.188
8.096
7.964
8.016
8.164
8.128
7.968
7.984
8.136
8.128
7.948
7.884
7.996
8.056
8.016
8.192
8.748
9.4
9.916
10.26
10.216
9.748
9.108
8.48
8.084
8.008
8.028
7.988
8.092
8.268
8.268
8.132
8.096
8.228
8.268
8.104
8.088
8.184
8.28
8.12
8.06
8.164
8.284
8.148
8.048
8.168
8.288
8.168
8.052
8.168
8.3
8.224
8.1
8.156
8.284
8.292
8.124
8.152
8.3
8.32
8.22
8.18
8.316
8.38
8.264
8.208
8.364
8.464
8.344
8.256
8.404
8.516
8.464
8.364
8.46
8.636
8.616
8.532
8.58
8.736
8.764
8.652
8.696
8.896
8.932
8.824
8.824
8.984
9.1
8.988
8.9
9.048
9.192
9.048
8.924
9.004
9.12
8.964
8.776
8.78
8.86
8.74
8.544
8.504
8.58
8.508
8.336
8.292
8.368
8.368
8.196
8.12
8.244
8.336
8.176
8.076
8.188
8.304
8.18
8.068
8.164
8.296
8.192
8.048
8.156
8.264
8.212
8.056
8.112
8.26
8.228
8.068
8.08
8.232
8.252
8.116
8.064
8.2
8.26
8.124
8.048
8.164
8.272
8.152
8.004
8.124
8.26
8.144
8.028
8.084
8.26
8.172
8.036
8.068
8.204
8.18
8.044
8.04
8.176
8.212
8.064
8
8.128
8.208
8.088
8.004
8.128
8.232
8.076
7.992
8.1
8.228
8.132
8.004
8.072
8.188
8.136
7.992
8.048
8.176
8.148
8.024
8.004
8.164
8.176
8.028
7.98
8.132
8.196
8.068
7.952
8.1
8.212
8.08
7.98
8.084
8.188
8.116
7.988
8.052
8.18
8.108
7.956
8.004
8.16
8.156
8
8.012
8.116
8.192
8.02
7.976
8.116
8.184
8.048
7.952
8.088
8.2
8.064
7.952
8.072
8.192
8.1
7.964
8.04
8.184
8.116
7.956
8.016
8.168
8.148
8.008
7.988
8.156
8.188
8.032
7.988
8.144
8.224
8.048
7.988
8.128
8.252
8.112
7.972
8.116
8.244
8.136
7.96
8.064
8.236
8.204
8.056
8.112
8.296
8.248
8.104
8.136
8.328
8.364
8.176
8.08
8.22
8.276
8.108
7.972
8.136
8.236
8.12
7.976
8.056
8.156
8.056
7.908
7.996
8.144
8.076
7.92
7.988
8.096
8.048
7.912
7.908
7.98
7.924
7.816
7.892
8.372
8.92
9.312
9.884
10.324
10.132
9.372
8.756
8.384
8.072
7.84
7.844
8.028
8.228
8.16
7.996
8.024
8.2
8.188
8.028
8.012
8.148
8.2
8.048
7.976
8.14
8.228
8.072
7.976
8.128
8.268
8.116
8.024
8.128
8.288
8.184
8.032
8.14
8.272
8.228
8.084
8.132
8.272
8.26
8.132
8.164
8.312
8.336
8.208
8.172
8.332
8.4
8.26
8.188
8.368
8.508
8.396
8.288
8.44
8.588
8.528
8.404
8.524
8.716
8.668
8.552
8.664
8.856
8.856
8.744
8.776
8.976
9.036
8.9
8.876
9.068
9.18
9.028
8.88
9.028
9.104
8.916
8.76
8.812
8.876
8.688
8.488
8.528
8.592
8.468
8.268
8.248
8.376
8.3
8.136
8.1
8.232
8.236
8.064
8.024
8.168
8.228
8.056
7.96
8.108
8.204
8.084
7.956
8.088
8.236
8.12
7.956
8.056
8.22
8.136
7.972
8.048
8.188
8.156
7.992
8.012
8.148
8.168
8
7.936
8.096
8.156
8.024
7.92
8.032
8.164
8.024
7.908
7.984
8.136
8.028
7.896
7.972
8.1
8.044
7.912
7.952
8.096
8.052
7.892
7.912
8.056
8.088
7.912
7.868
8.012
8.08
7.944
7.84
7.984
8.076
7.96
7.816
7.94
8.06
7.956
7.82
7.904
8.064
7.972
7.832
7.884
8.032
8.016
7.836
7.86
8.008
8.024
7.884
7.816
7.976
8.048
7.92
7.8
7.94
8.048
7.908
7.78
7.92
8.056
7.944
7.804
7.86
7.988
7.948
7.792
7.808
7.972
7.988
7.84
7.796
7.964
7.98
7.856
7.804
7.932
8.008
7.84
7.78
7.916
8.06
7.884
7.748
7.852
8.008
7.912
7.76
7.864
8.036
8
7.872
7.936
8.06
8.024
7.876
7.936
8.128
8.132
7.928
7.872
8.008
8.072
7.876
7.776
7.904
8.028
7.876
7.732
7.848
7.944
7.824
7.708
7.792
7.96
7.864
7.728
7.756
7.932
7.9
7.74
7.64
7.724
7.784
7.736
7.98
8.572
9.236
9.76
9.976
9.844
9.368
8.768
8.188
7.772
7.744
7.652
7.684
7.784
8.016
7.932
7.836
7.816
7.988
7.952
7.852
7.792
7.948
7.988
7.88
7.768
7.92
7.996
7.884
7.764
7.896
8.044
7.896
7.796
7.888
8.056
7.936
7.84
7.904
8.048
7.984
7.904
7.884
8.044
8.036
7.964
7.916
8.068
8.092
8.016
7.936
8.096
8.212
8.096
7.988
8.156
8.308
8.184
8.096
8.22
8.392
8.312
8.26
8.32
8.508
8.48
8.412
8.46
8.64
8.668
8.588
8.556
8.756
8.82
8.724
8.652
8.836
8.94
8.784
8.648
8.768
8.84
8.628
8.504
8.508
8.592
8.396
8.232
8.204
8.332
8.192
8.04
7.992
8.132
8.076
7.936
7.856
8.004
8.044
7.892
7.792
7.92
8.032
7.88
7.78
7.908
8.036
7.88
7.788
7.896
8.028
7.916
7.796
7.872
8
7.944
7.872
7.828
7.98
7.988
7.86
7.82
7.956
8.004
7.888
7.784
7.916
8.016
7.84
7.76
7.908
8.02
7.836
7.744
7.836
8
7.908
7.8
7.824
8
7.904
7.804
7.804
7.936
7.9
7.808
7.744
7.916
7.948
7.82
7.712
7.872
7.976
7.832
7.72
7.812
7.98
7.832
7.716
7.812
7.924
7.856
7.768
7.792
7.932
7.864
7.788
7.78
7.92
7.9
7.796
7.752
7.896
7.94
7.812
7.72
7.86
7.96
7.82
7.724
7.832
7.972
7.82
7.744
7.828
7.972
7.844
7.772
7.828
7.952
7.888
7.78
7.784
7.948
7.976
7.888
7.872
7.996
8.04
7.912
7.852
8.064
8.188
8.008
7.836
7.968
8.072
7.876
7.8
7.86
8.004
7.904
7.788
7.808
7.936
7.852
7.752
7.764
7.92
7.896
7.796
7.748
7.88
7.948
7.804
7.668
7.744
7.808
7.744
7.836
8.332
8.992
9.432
9.956
10.14
9.796
9.092
8.544
8.052
7.836
7.728
7.752
7.804
8.032
8.052
7.944
7.888
8.028
8.084
7.908
7.812
7.992
8.08
7.948
7.868
7.972
8.116
7.968
7.9
7.984
8.132
8.016
7.904
7.964
8.136
8.076
7.976
7.964
8.124
8.148
8.016
7.96
8.136
8.196
8.072
8.036
8.164
8.272
8.128
8.056
8.2
8.336
8.216
8.144
8.232
8.396
8.332
8.264
8.324
8.488
8.468
8.396
8.428
8.612
8.648
8.572
8.564
8.736
8.82
8.712
8.688
8.836
8.972
8.852
8.78
8.92
9.06
8.904
8.82
8.88
8.964
8.804
8.676
8.648
8.704
8.584
8.428
8.356
8.456
8.372
8.196
8.132
8.228
8.268
8.096
8
8.12
8.208
8.04
7.96
8.064
8.196
8.072
7.964
8.048
8.184
8.092
8.02
8.044
8.184
8.132
8.012
7.992
8.172
8.164
8.052
7.988
8.12
8.196
8.072
8.012
8.12
8.208
8.056
8.004
8.1
8.232
8.088
8.016
8.072
8.236
8.112
8.008
8.048
8.208
8.132
8.012
7.992
8.16
8.16
8.048
8
8.12
8.192
8.012
7.948
8.104
8.18
8.024
7.948
8.064
8.2
8.044
7.968
8.016
8.176
8.088
7.98
7.996
8.156
8.104
7.972
7.952
8.112
8.136
7.976
7.936
8.1
8.156
7.976
7.94
8.048
8.164
8.008
7.924
8
8.168
8.04
7.956
8
8.168
8.028
7.956
7.98
8.124
8.088
7.976
7.944
8.132
8.092
7.984
7.932
8.132
8.252
8.096
8.072
8.136
8.272
8.12
8.084
8.232
8.348
8.212
8.076
8.132
8.268
8.128
7.996
8.02
8.2
8.156
7.98
7.972
8.116
8.1
7.944
7.916
8.044
8.112
7.952
7.904
8.052
8.16
7.976
7.868
7.916
8.024
7.94
8.02
8.412
9.076
9.536
10.1
10.34
10.064
9.412
8.788
8.268
8.012
7.968
7.956
7.976
8.18
8.268
8.092
8.024
8.144
8.256
8.096
8
8.112
8.276
8.132
8.036
8.108
8.264
8.16
8.056
8.08
8.244
8.212
8.084
8.084
8.236
8.252
8.116
8.092
8.252
8.34
8.164
8.108
8.252
8.384
8.252
8.16
8.244
8.428
8.28
8.232
8.276
8.448
8.376
8.296
8.36
8.544
8.492
8.388
8.392
8.604
8.672
8.532
8.508
8.712
8.812
8.692
8.676
8.82
8.96
8.812
8.796
8.928
9.12
8.972
8.92
8.984
9.16
9.08
8.936
8.944
9.084
8.968
8.796
8.736
8.808
8.756
8.508
8.416
8.492
8.528
8.272
8.168
8.276
8.368
8.184
8.04
8.14
8.3
8.144
8.024
8.068
8.24
8.144
8.008
8.036
8.188
8.16
8.032
8.028
8.184
8.196
8.032
8.004
8.172
8.228
8.056
8.004
8.144
8.276
8.096
8.008
8.1
8.256
8.104
8.024
8.092
8.256
8.136
8.032
8.072
8.232
8.176
8.012
8.012
8.184
8.192
8.028
7.98
8.132
8.228
8.04
7.952
8.092
8.224
8.048
7.98
8.06
8.2
8.088
7.972
8.004
8.2
8.124
7.972
7.976
8.152
8.128
7.976
7.976
8.124
8.168
7.984
7.972
8.092
8.168
7.976
7.92
8.044
8.18
8.024
7.92
8.02
8.188
8.052
7.952
7.968
8.156
8.092
7.944
7.968
8.16
8.12
7.972
7.984
8.128
8.16
7.98
7.936
8.12
8.208
7.996
7.94
8.056
8.208
8.032
7.944
8.068
8.248
8.132
8.064
8.136
8.272
8.176
8.064
8.14
8.324
8.304
8.08
8.096
8.236
8.24
8.028
8.012
8.144
8.216
7.992
7.928
8.048
8.16
7.992
7.912
7.992
8.148
8.032
7.932
7.984
8.136
8.056
7.872
7.848
7.968
7.968
7.948
8.284
8.908
9.52
10.004
10.244
10.032
9.492
8.824
8.304
7.956
7.952
7.9
7.892
8.084
8.272
8.132
8.04
8.096
8.252
8.128
8.004
8.072
8.216
8.164
8.064
8.056
8.212
8.228
8.048
8.06
8.176
8.248
8.132
8.1
8.176
8.288
8.148
8.068
8.172
8.304
8.216
8.116
8.18
8.34
8.232
8.136
8.192
8.344
8.296
8.144
8.192
8.336
8.38
8.236
8.248
8.412
8.52
8.404
8.384
8.532
8.616
8.516
8.496
8.6
8.8
8.68
8.596
8.696
8.916
8.832
8.748
8.808
9.032
8.996
8.824
8.872
9.048
9.088
8.896
8.868
8.96
9.004
8.772
8.676
8.684
8.756
8.544
8.356
8.416
8.472
8.308
8.136
8.192
8.312
8.176
8.008
8.048
8.18
8.16
7.968
7.992
8.116
8.156
7.98
7.984
8.088
8.156
8
7.968
8.06
8.188
7.96
7.936
8.088
8.216
8.124
7.968
8.02
8.164
8.092
7.948
8.008
8.132
8.076
7.92
8.008
8.156
8.144
7.98
7.98
8.132
8.2
8.028
7.96
8.08
8.208
8.06
7.968
8.048
8.196
8.052
7.964
8.048
8.148
8.088
7.932
8.016
8.144
8.104
7.956
7.988
8.128
8.16
7.976
7.976
8.096
8.16
8.02
7.972
8.056
8.172
8.024
7.976
8.068
8.192
8.052
7.968
8.048
8.188
8.084
7.952
8.028
8.176
8.152
7.984
7.992
8.136
8.132
7.996
7.988
8.112
8.176
8.068
8.056
8.168
8.34
8.176
8.064
8.168
8.332
8.268
8.172
8.228
8.312
8.236
8.088
8.1
8.2
8.16
8.012
8.02
8.136
8.136
7.972
7.948
8.076
8.14
7.968
7.916
8.056
8.128
8
7.908
8.032
8.152
7.976
7.792
7.94
8.172
8.292
8.584
9.204
9.968
10.348
10.02
9.456
9.06
8.6
7.936
7.704
7.928
8.096
8.016
7.976
8.152
8.248
8.088
7.976
8.12
8.22
8.112
7.968
8.1
8.224
8.152
8.004
8.052
8.192
8.168
8.02
8.024
8.204
8.2
8.072
8.012
8.18
8.252
8.12
8.032
8.16
8.288
8.172
8.044
8.192
8.34
8.212
8.12
8.24
8.384
8.292
8.192
8.236
8.384
8.376
8.284
8.304
8.468
8.532
8.412
8.412
8.608
8.708
8.592
8.528
8.724
8.88
8.756
8.676
8.828
9.016
8.924
8.836
8.944
9.124
9.052
8.932
8.98
9.096
9.068
8.876
8.824
8.916
8.856
8.628
8.496
8.58
8.588
8.388
8.212
8.324
8.38
8.216
8.076
8.148
8.264
8.148
7.988
8.1
8.196
8.128
7.988
8.024
8.192
8.152
8
7.968
8.112
8.14
8.028
7.964
8.096
8.188
8.04
7.936
8.076
8.192
8.032
7.94
8.048
8.176
8.056
7.936
8.02
8.172
8.084
7.944
7.996
8.132
8.1
7.968
7.928
8.104
8.076
7.948
7.896
8.04
8.116
7.956
7.876
8.02
8.144
7.976
7.86
7.98
8.1
8
7.872
7.976
8.124
8.04
7.872
7.916
8.04
8.032
7.888
7.924
8.104
8.128
7.976
7.948
8.104
8.168
8.008
7.932
8.14
8.276
8.12
7.964
8.048
8.168
8.012
7.888
7.96
8.096
8.016
7.84
7.868
8.032
7.944
7.788
7.772
7.964
7.968
7.82
7.756
7.888
7.976
7.864
7.732
7.848
7.904
7.724
7.664
7.94
8.408
8.756
9.184
9.856
10.232
9.796
9.04
8.624
8.284
7.844
7.552
7.576
7.84
7.964
7.872
7.844
7.992
8.076
7.924
7.824
7.972
8.084
7.96
7.804
7.944
8.108
8.008
7.872
7.932
8.1
8.04
7.916
7.948
8.084
8.068
7.94
7.944
8.116
8.12
7.964
7.896
8.088
8.192
8.028
7.928
8.08
8.236
8.116
7.96
8.12
8.276
8.172
8.024
8.152
8.324
8.276
8.144
8.212
8.42
8.416
8.296
8.304
8.512
8.592
8.444
8.408
8.608
8.74
8.628
8.556
8.732
8.876
8.78
8.676
8.828
8.956
8.848
8.716
8.764
8.872
8.732
8.548
8.508
8.596
8.516
8.292
8.22
8.296
8.28
8.08
7.984
8.108
8.14
7.976
7.856
7.98
8.096
7.932
7.78
7.916
8.056
7.912
7.78
7.856
8.016
7.976
7.812
7.816
7.972
7.936
7.832
7.82
7.96
7.992
7.816
7.784
7.92
8.016
7.852
7.74
7.856
7.996
7.86
7.712
7.824
7.972
7.852
7.728
7.788
7.936
7.868
7.712
7.748
7.888
7.892
7.712
7.728
7.824
7.872
7.744
7.696
7.816
7.928
7.756
7.652
7.76
7.916
7.78
7.648
7.764
7.932
7.872
7.732
7.816
7.976
7.896
7.716
7.788
7.988
7.992
7.808
7.756
7.888
7.956
7.768
7.668
7.788
7.908
7.74
7.62
7.74
7.84
7.692
7.536
7.64
7.844
7.72
7.572
7.648
7.816
7.788
7.612
7.612
7.764
7.688
7.472
7.556
7.776
8.176
8.444
8.976
9.732
10.084
9.624
8.9
8.556
8.268
7.664
7.336
7.528
7.824
7.792
7.676
7.78
7.956
7.896
7.724
7.732
7.896
7.932
7.74
7.736
7.896
7.976
7.804
7.72
7.856
8.028
7.848
7.712
7.852
8.02
7.896
7.748
7.84
8.04
7.936
7.78
7.864
8.028
8
7.844
7.856
8.044
8.064
7.896
7.912
8.068
8.14
8.004
7.924
8.092
8.248
8.112
8.008
8.144
8.34
8.224
8.132
8.26
8.444
8.4
8.26
8.384
8.596
8.568
8.436
8.5
8.664
8.736
8.56
8.592
8.752
8.82
8.636
8.56
8.68
8.776
8.556
8.36
8.464
8.548
8.32
8.104
8.172
8.304
8.128
7.936
7.964
8.08
8.024
7.848
7.856
7.98
7.976
7.796
7.792
7.92
7.984
7.824
7.708
7.888
8.028
7.848
7.728
7.864
8.016
7.896
7.736
7.848
8.012
7.912
7.768
7.864
7.976
7.948
7.788
7.812
7.96
7.96
7.808
7.772
7.924
8.008
7.82
7.756
7.904
8
7.852
7.716
7.844
7.992
7.84
7.728
7.84
7.968
7.876
7.712
7.8
7.948
7.892
7.704
7.76
7.928
7.944
7.808
7.804
7.972
8.024
7.864
7.784
7.936
8.088
7.924
7.8
7.908
8.024
7.896
7.7
7.812
7.96
7.852
7.68
7.756
7.892
7.82
7.596
7.644
7.772
7.788
7.604
7.604
7.732
7.808
7.62
7.556
7.716
7.812
7.56
7.404
7.608
7.892
8.06
8.388
9.072
9.848
10.012
9.516
8.996
8.68
8.148
7.512
7.404
7.612
7.732
7.628
7.636
7.796
7.9
7.716
7.636
7.78
7.892
7.732
7.604
7.724
7.852
7.732
7.6
7.74
7.876
7.764
7.644
7.728
7.868
7.82
7.672
7.724
7.872
7.876
7.732
7.712
7.864
7.936
7.792
7.724
7.884
7.972
7.844
7.736
7.904
8.032
7.904
7.764
7.936
8.1
8.004
7.872
7.988
8.18
8.144
8.004
8.076
8.276
8.3
8.188
8.212
8.368
8.472
8.34
8.316
8.484
8.628
8.468
8.412
8.564
8.736
8.6
8.408
8.52
8.64
8.508
8.304
8.34
8.38
8.292
8.064
8.06
8.112
8.052
7.848
7.804
7.932
7.94
7.74
7.676
7.792
7.872
7.724
7.584
7.732
7.852
7.752
7.588
7.716
7.856
7.772
7.624
7.748
7.868
7.82
7.656
7.712
7.836
7.844
7.668
7.668
7.804
7.88
7.708
7.644
7.784
7.904
7.744
7.6
7.764
7.88
7.728
7.604
7.76
7.888
7.768
7.616
7.728
7.856
7.788
7.644
7.692
7.828
7.828
7.644
7.652
7.768
7.864
7.724
7.684
7.84
7.956
7.804
7.652
7.82
7.964
7.844
7.72
7.852
7.956
7.832
7.664
7.724
7.84
7.784
7.652
7.672
7.796
7.796
7.632
7.584
7.716
7.76
7.568
7.532
7.692
7.792
7.636
7.512
7.688
7.796
7.624
7.42
7.52
7.736
7.852
8.084
8.696
9.388
9.888
9.832
9.368
8.932
8.448
7.812
7.408
7.52
7.696
7.636
7.608
7.776
7.904
7.736
7.636
7.752
7.876
7.752
7.62
7.764
7.892
7.78
7.644
7.78
7.904
7.86
7.688
7.756
7.9
7.916
7.756
7.74
7.908
7.972
7.812
7.744
7.908
8.008
7.852
7.792
7.956
8.068
7.936
7.828
7.968
8.128
8.028
7.892
8.016
8.144
8.156
8.02
8.052
8.236
8.248
8.144
8.16
8.34
8.416
8.296
8.256
8.452
8.564
8.46
8.36
8.556
8.708
8.604
8.488
8.644
8.76
8.688
8.556
8.624
8.7
8.624
8.464
8.448
8.52
8.452
8.208
8.14
8.24
8.244
8.032
7.928
8.036
8.092
7.928
7.776
7.9
8.024
7.88
7.756
7.868
7.98
7.876
7.76
7.856
7.98
7.908
7.78
7.82
7.968
7.964
7.812
7.78
7.928
7.988
7.844
7.76
7.944
8.008
7.872
7.756
7.932
8.004
7.868
7.744
7.884
8.032
7.96
7.788
7.848
7.956
7.904
7.768
7.792
7.96
7.952
7.824
7.772
7.948
7.968
7.82
7.768
7.916
7.988
7.824
7.728
7.88
7.96
7.86
7.716
7.84
7.964
7.892
7.804
7.908
8.044
7.984
7.828
7.816
7.972
8.02
7.888
7.904
8.064
8.032
7.868
7.812
7.928
7.996
7.86
7.772
7.904
7.984
7.828
7.704
7.784
7.888
7.808
7.692
7.772
7.892
7.852
7.684
7.736
7.884
7.876
7.664
7.576
7.744
7.856
7.924
8.288
8.972
9.656
10.048
9.912
9.456
8.988
8.376
7.772
7.608
7.788
7.78
7.74
7.86
8.012
7.94
7.796
7.812
7.964
7.96
7.82
7.796
7.956
7.964
7.828
7.792
7.932
8.028
7.884
7.78
7.96
8.028
7.904
7.792
7.944
8.056
7.956
7.844
7.92
8.04
8.02
7.884
7.92
8.076
8.084
7.968
7.952
8.108
8.152
8.024
7.984
8.144
8.252
8.128
8.04
8.196
8.336
8.24
8.156
8.308
8.432
8.364
8.296
8.4
8.556
8.516
8.428
8.496
8.656
8.692
8.564
8.576
8.768
8.824
8.688
8.6
8.752
8.808
8.636
8.484
8.528
8.612
8.416
8.22
8.26
8.364
8.204
7.996
8.036
8.132
8.072
7.872
7.888
8.004
8.016
7.86
7.804
7.932
8.016
7.868
7.8
7.916
8.02
7.864
7.768
7.888
8.016
7.9
7.764
7.856
8.028
7.952
7.792
7.828
7.968
7.952
7.812
7.824
7.96
7.972
7.824
7.8
7.952
7.976
7.848
7.756
7.908
8.012
7.86
7.776
7.884
8.008
7.892
7.748
7.852
7.984
7.892
7.736
7.808
7.96
7.9
7.772
7.812
7.952
7.948
7.796
7.74
7.912
7.988
7.828
7.76
7.916
8.04
7.92
7.816
7.96
8.116
7.968
7.836
7.932
8.096
8.064
7.94
7.992
8.112
8.036
7.872
7.844
7.996
8.004
7.844
7.796
7.924
7.96
7.82
7.696
7.832
7.94
7.792
7.696
7.816
7.932
7.816
7.68
7.784
7.92
7.808
7.604
7.612
7.824
7.94
8.12
8.604
9.284
9.928
10.048
9.656
9.204
8.76
8.128
7.596
7.66
7.848
7.8
7.756
7.92
8.04
7.904
7.768
7.88
7.988
7.916
7.772
7.86
7.992
7.956
7.828
7.844
7.976
8
7.864
7.844
7.992
8.036
7.888
7.816
7.96
8.084
7.94
7.868
7.968
8.12
8.004
7.884
8.008
8.14
8.044
7.944
8
8.176
8.144
8.02
8.032
8.22
8.26
8.088
8.096
8.284
8.36
8.256
8.192
8.376
8.488
8.4
8.324
8.476
8.64
8.556
8.48
8.596
8.784
8.732
8.62
8.68
8.872
8.856
8.708
8.688
8.86
8.84
8.656
8.552
8.66
8.616
8.408
8.28
8.376
8.392
8.204
8.056
8.144
8.244
8.072
7.948
8
8.124
8.04
7.908
7.94
8.104
8.056
7.916
7.908
8.084
8.072
7.916
7.884
8.06
8.108
7.948
7.868
8.036
8.136
7.996
7.876
7.984
8.108
8.012
7.86
7.976
8.104
8.04
7.884
7.948
8.084
8.06
7.892
7.884
8.08
8.072
7.908
7.832
8.04
8.1
7.94
7.808
8
8.092
7.956
7.8
7.96
8.088
7.944
7.804
7.92
8.068
7.98
7.836
7.876
8.056
8
7.852
7.832
8.016
8.032
7.876
7.816
7.988
8.044
7.94
7.864
8.056
8.168
8.028
7.904
8.048
8.18
8.088
8.004
8.076
8.196
8.092
7.936
7.976
8.1
8.048
7.9
7.888
8.032
8.012
7.88
7.788
7.984
8.012
7.856
7.76
7.92
8.044
7.88
7.736
7.892
8.048
7.904
7.704
7.744
7.888
7.892
7.996
8.436
9.136
9.72
10.056
10.008
9.62
9.072
8.456
7.856
7.788
7.888
7.812
7.784
8.02
8.156
8
7.856
7.988
8.116
7.988
7.848
7.964
8.128
8.032
7.9
7.956
8.156
8.08
7.924
7.9
8.128
8.144
7.968
7.92
8.12
8.176
8.02
7.912
8.104
8.232
8.072
7.972
8.1
8.284
8.112
8.024
8.136
8.308
8.212
8.068
8.124
8.356
8.32
8.168
8.192
8.404
8.444
8.296
8.276
8.508
8.58
8.452
8.396
8.62
8.744
8.616
8.504
8.72
8.892
8.736
8.664
8.784
8.992
8.872
8.756
8.808
8.988
8.876
8.724
8.652
8.82
8.752
8.504
8.384
8.52
8.532
8.292
8.148
8.276
8.368
8.14
8.008
8.116
8.26
8.088
7.98
8.032
8.244
8.104
7.964
8.004
8.192
8.16
7.976
7.952
8.168
8.192
7.992
7.932
8.144
8.228
8.052
7.944
8.108
8.2
8.032
7.944
8.08
8.208
8.02
7.896
7.988
8.164
8.028
7.892
7.9
8.108
8.048
7.864
7.848
8.024
8.064
7.892
7.82
7.976
8.044
7.844
7.776
7.92
8.056
7.852
7.752
7.876
8.056
7.876
7.696
7.816
8.028
7.9
7.752
7.772
7.976
7.908
7.764
7.74
7.948
7.96
7.748
7.7
7.9
7.996
7.816
7.74
7.944
8.096
7.94
7.788
7.936
8.112
8.048
7.92
7.976
8.136
7.976
7.82
7.848
8.012
7.964
7.784
7.792
7.984
7.976
7.764
7.704
7.896
7.948
7.764
7.688
7.808
7.952
7.796
7.672
7.824
7.972
7.816
7.628
7.64
7.856
7.86
7.976
8.464
9.18
9.804
10.056
9.84
9.424
8.928
8.26
7.712
7.692
7.868
7.784
7.752
7.968
8.108
7.912
7.796
7.932
8.096
7.94
7.808
7.888
8.08
7.988
7.808
7.852
8.08
8.048
7.864
7.856
8.064
8.1
7.896
7.844
8.056
8.144
7.976
7.888
8.088
8.228
8.028
7.904
8.052
8.252
8.116
7.968
8.076
8.292
8.204
8.06
8.136
8.34
8.344
8.196
8.192
8.44
8.472
8.296
8.268
8.516
8.648
8.472
8.372
8.596
8.808
8.656
8.56
8.664
8.904
8.8
8.692
8.772
8.984
8.92
8.796
8.792
9.004
8.932
8.716
8.64
8.8
8.752
8.468
8.364
8.484
8.54
8.288
8.136
8.224
8.348
8.144
8.028
8.136
8.3
8.032
7.92
8.036
8.208
8.14
7.96
7.948
8.156
8.152
7.924
7.896
8.104
8.152
7.952
7.916
8.116
8.2
8.004
7.904
8.072
8.232
8.016
7.924
8.064
8.268
8.112
7.956
7.992
8.204
8.132
7.984
7.956
8.208
8.18
7.968
7.98
8.168
8.22
8.092
7.952
8.1
8.276
8.032
7.948
8.052
8.148
8.032
7.88
7.976
8.22
8.092
7.952
7.928
8.176
8.072
7.896
7.924
8.148
8.128
7.924
7.944
8.2
8.276
8.068
8.08
8.196
8.352
8.124
8.056
8.232
8.392
8.136
8.02
8.108
8.324
8.08
7.948
8.028
8.216
8.088
7.968
7.972
8.164
8.068
7.848
7.848
8.048
8.12
7.864
7.78
7.944
8.092
7.848
7.784
7.88
8.012
7.832
7.792
8.084
8.704
9.048
9.52
10.168
10.384
9.78
9.048
8.56
8.236
7.872
7.724
7.828
8.104
8.208
8.02
8.012
8.136
8.244
8.064
7.948
8.116
8.264
8.064
7.908
8.032
8.24
8.168
7.972
8.028
8.22
8.168
8.008
8.068
8.232
8.208
8.024
8.028
8.248
8.316
8.072
8.072
8.248
8.396
8.196
8.128
8.236
8.404
8.288
8.164
8.268
8.46
8.34
8.264
8.348
8.52
8.52
8.336
8.4
8.636
8.66
8.46
8.536
8.724
8.836
8.692
8.7
8.84
9.012
8.848
8.764
8.948
9.172
8.988
8.884
9.056
9.22
9.132
8.944
8.944
9.1
8.98
8.72
8.74
8.844
8.78
8.48
8.396
8.52
8.556
8.268
8.2
8.3
8.448
8.204
8.068
8.232
8.404
8.212
8.044
8.16
8.444
8.28
8.036
8.14
8.332
8.284
8.1
8.136
8.304
8.272
8.08
8.116
8.284
8.324
8.104
8.052
8.244
8.364
8.12
8.044
8.192
8.392
8.184
8.016
8.128
8.292
8.172
8.052
8.144
8.316
8.204
8.068
8.112
8.28
8.256
8.012
8.048
8.264
8.304
8.04
8.044
8.208
8.328
8.128
8.068
8.272
8.404
8.22
8.124
8.256
8.416
8.264
8.2
8.352
8.496
8.38
8.144
8.192
8.348
8.304
8.08
8.068
8.248
8.284
8.02
7.972
8.12
8.232
8.016
7.948
8.084
8.224
8.068
7.916
8.056
8.236
8.124
7.908
7.952
8.052
8.04
7.944
8.312
8.908
9.412
9.804
10.172
10.12
9.552
8.864
8.296
8.016
7.968
7.78
7.804
8.068
8.272
8.112
7.948
8.1
8.264
8.136
7.936
8.04
8.236
8.148
7.936
8.036
8.232
8.232
8.008
8.02
8.2
8.272
8.028
7.968
8.188
8.3
8.08
7.948
8.136
8.3
8.156
7.972
8.148
8.316
8.22
8.012
8.16
8.352
8.288
8.068
8.136
8.356
8.352
8.164
8.168
8.388
8.488
8.332
8.264
8.464
8.6
8.436
8.368
8.568
8.78
8.644
8.48
8.664
8.86
8.76
8.576
8.736
8.96
8.92
8.748
8.768
8.952
8.936
8.7
8.636
8.776
8.764
8.52
8.38
8.48
8.544
8.276
8.084
8.248
8.348
8.144
7.952
8.084
8.244
8.088
7.896
7.992
8.164
8.124
7.908
7.968
8.156
8.136
7.948
7.912
8.12
8.16
7.968
7.832
8.056
8.212
8.008
7.828
8.024
8.176
8.052
7.82
7.972
8.168
8.056
7.872
7.944
8.156
8.1
7.884
7.876
8.132
8.116
7.92
7.796
8.048
8.152
7.944
7.8
8.016
8.148
8.004
7.836
8.032
8.26
8.116
7.956
8
8.268
8.152
7.996
8.048
8.304
8.252
8
7.972
8.156
8.18
7.972
7.856
8.068
8.148
7.964
7.832
7.948
8.18
7.944
7.76
7.896
8.16
7.992
7.768
7.896
8.152
8.048
7.836
7.748
7.9
7.956
7.932
8.244
8.884
9.492
9.94
10.136
9.928
9.472
8.756
8.108
7.868
7.9
7.824
7.748
7.98
8.212
8.096
7.864
7.984
8.168
8.104
7.912
7.992
8.16
8.096
7.936
7.956
8.156
8.16
7.984
7.952
8.116
8.192
8.032
7.932
8.108
8.232
8.072
7.98
8.1
8.272
8.148
8.016
8.136
8.304
8.184
8.092
8.188
8.356
8.288
8.148
8.168
8.368
8.372
8.24
8.244
8.428
8.516
8.336
8.312
8.52
8.66
8.504
8.428
8.624
8.792
8.66
8.54
8.748
8.908
8.852
8.668
8.772
8.996
8.972
8.804
8.8
8.992
8.972
8.752
8.668
8.784
8.8
8.556
8.38
8.52
8.588
8.344
8.172
8.288
8.408
8.24
8.048
8.16
8.304
8.192
8.044
8.084
8.248
8.196
8.044
8.028
8.216
8.216
8.032
8.012
8.168
8.276
8.068
7.976
8.144
8.276
8.136
8.008
8.112
8.284
8.144
7.98
8.092
8.248
8.152
7.988
8.052
8.232
8.164
7.98
7.992
8.176
8.196
7.988
7.932
8.12
8.204
8.024
7.904
8.048
8.168
8.052
7.928
8.104
8.268
8.144
7.952
8.084
8.236
8.14
8.012
8.084
8.26
8.168
8
7.956
8.096
8.096
7.908
7.84
8.032
8.064
7.872
7.744
7.912
7.992
7.804
7.672
7.844
8.02
7.84
7.68
7.792
7.996
7.876
7.64
7.6
7.796
7.848
7.88
8.296
8.968
9.592
9.896
9.792
9.468
8.992
8.34
7.696
7.576
7.716
7.668
7.576
7.808
8.008
7.892
7.712
7.788
7.984
7.868
7.708
7.788
7.964
7.924
7.72
7.736
7.936
7.956
7.736
7.696
7.908
7.98
7.82
7.692
7.876
8.012
7.844
7.716
7.884
8.032
7.888
7.76
7.888
8.068
7.956
7.796
7.876
8.088
8.048
7.892
7.888
8.128
8.14
7.992
7.924
8.172
8.272
8.104
8.044
8.228
8.388
8.24
8.132
8.348
8.536
8.396
8.268
8.412
8.628
8.548
8.404
8.488
8.7
8.664
8.488
8.456
8.644
8.624
8.396
8.284
8.432
8.432
8.172
7.996
8.144
8.188
7.992
7.772
7.896
8.028
7.852
7.668
7.768
7.92
7.808
7.656
7.692
7.896
7.84
7.668
7.668
7.872
7.84
7.66
7.612
7.808
7.88
7.704
7.576
7.772
7.88
7.748
7.564
7.728
7.88
7.728
7.576
7.716
7.84
7.748
7.58
7.652
7.84
7.772
7.576
7.584
7.792
7.804
7.62
7.56
7.768
7.844
7.712
7.628
7.792
7.916
7.752
7.608
7.816
7.992
7.86
7.656
7.756
7.892
7.784
7.552
7.632
7.792
7.764
7.576
7.548
7.62
7.724
7.56
7.468
7.652
7.724
7.536
7.42
7.632
7.744
7.572
7.42
7.544
7.64
7.448
7.356
7.648
8.22
8.668
9.108
9.696
9.932
9.408
8.664
8.192
7.872
7.528
7.328
7.352
7.636
7.804
7.636
7.52
7.716
7.84
7.7
7.528
7.676
7.824
7.72
7.516
7.652
7.816
7.748
7.592
7.66
7.828
7.808
7.624
7.628
7.828
7.856
7.684
7.624
7.808
7.912
7.744
7.648
7.816
7.96
7.796
7.664
7.832
8.008
7.888
7.708
7.868
8.044
7.968
7.828
7.896
8.104
8.108
7.96
7.956
8.204
8.26
8.096
8.04
8.276
8.38
8.228
8.164
8.36
8.52
8.372
8.224
8.416
8.616
8.496
8.324
8.448
8.62
8.488
8.288
8.284
8.412
8.296
8.06
8.02
8.148
8.12
7.888
7.756
7.92
7.988
7.78
7.616
7.784
7.92
7.756
7.572
7.712
7.876
7.752
7.588
7.672
7.848
7.752
7.596
7.64
7.828
7.8
7.632
7.608
7.824
7.836
7.644
7.576
7.776
7.852
7.7
7.556
7.74
7.872
7.724
7.552
7.732
7.864
7.736
7.548
7.672
7.804
7.752
7.568
7.628
7.792
7.784
7.584
7.596
7.752
7.824
7.704
7.632
7.812
7.904
7.76
7.612
7.82
7.98
7.844
7.636
7.772
7.888
7.76
7.576
7.664
7.784
7.772
7.572
7.596
7.68
7.72
7.528
7.516
7.632
7.752
7.568
7.472
7.608
7.748
7.604
7.448
7.56
7.62
7.492
7.4
7.736
8.252
8.728
9.112
9.752
9.928
9.388
8.628
8.196
7.804
7.512
7.348
7.448
7.672
7.816
7.66
7.552
7.676
7.848
7.688
7.544
7.668
7.828
7.736
7.564
7.668
7.804
7.76
7.572
7.676
7.792
7.804
7.628
7.652
7.808
7.852
7.664
7.656
7.8
7.92
7.768
7.656
7.82
7.996
7.836
7.712
7.844
8.012
7.908
7.736
7.876
8.04
8.024
7.832
7.912
8.108
8.152
7.964
7.992
8.172
8.292
8.132
8.096
8.252
8.388
8.236
8.188
8.348
8.528
8.4
8.288
8.412
8.644
8.556
8.36
8.456
8.62
8.556
8.32
8.324
8.432
8.4
8.136
8.076
8.16
8.164
7.904
7.844
7.952
8.028
7.788
7.684
7.8
7.944
7.788
7.608
7.716
7.904
7.768
7.6
7.684
7.888
7.788
7.604
7.668
7.844
7.82
7.596
7.664
7.796
7.86
7.636
7.604
7.756
7.896
7.696
7.576
7.688
7.9
7.736
7.576
7.692
7.908
7.764
7.588
7.692
7.884
7.78
7.564
7.636
7.84
7.796
7.6
7.596
7.756
7.816
7.608
7.576
7.712
7.816
7.66
7.6
7.748
7.928
7.792
7.624
7.74
7.924
7.78
7.676
7.788
7.992
7.86
7.648
7.684
7.84
7.788
7.588
7.6
7.776
7.776
7.576
7.516
7.668
7.764
7.544
7.476
7.62
7.784
7.608
7.44
7.556
7.808
7.636
7.404
7.396
7.62
7.6
7.628
8.06
8.78
9.348
9.708
9.724
9.392
8.856
8.184
7.64
7.444
7.6
7.492
7.464
7.668
7.888
7.716
7.548
7.656
7.88
7.704
7.512
7.616
7.856
7.712
7.564
7.612
7.844
7.792
7.588
7.596
7.828
7.848
7.64
7.596
7.792
7.896
7.716
7.62
7.78
7.92
7.776
7.652
7.756
7.988
7.82
7.68
7.764
8.032
7.924
7.744
7.808
8.052
8.04
7.868
7.888
8.112
8.164
8.012
7.988
8.184
8.3
8.144
8.076
8.264
8.444
8.284
8.192
8.328
8.576
8.42
8.292
8.388
8.664
8.544
8.372
8.416
8.62
8.52
8.288
8.252
8.4
8.32
8.104
7.972
8.092
8.132
7.876
7.756
7.876
8.008
7.792
7.64
7.728
7.956
7.792
7.592
7.692
7.916
7.78
7.596
7.656
7.876
7.828
7.632
7.608
7.864
7.848
7.664
7.588
7.808
7.904
7.732
7.616
7.748
7.892
7.72
7.592
7.724
7.9
7.74
7.596
7.668
7.896
7.784
7.592
7.64
7.868
7.8
7.62
7.624
7.828
7.848
7.64
7.592
7.784
7.856
7.66
7.572
7.736
7.872
7.688
7.532
7.688
7.908
7.704
7.52
7.636
7.86
7.74
7.54
7.612
7.832
7.768
7.588
7.592
7.808
7.788
7.616
7.596
7.82
7.928
7.72
7.636
7.784
7.936
7.78
7.668
7.808
8.008
7.82
7.624
7.68
7.892
7.752
7.556
7.592
7.776
7.708
7.512
7.48
7.68
7.68
7.492
7.424
7.62
7.696
7.488
7.392
7.576
7.728
7.528
7.304
7.356
7.596
7.532
7.62
8.132
8.9
9.42
9.672
9.616
9.236
8.656
7.988
7.484
7.436
7.528
7.448
7.46
7.696
7.796
7.592
7.488
7.672
7.8
7.604
7.468
7.588
7.796
7.644
7.468
7.576
7.804
7.696
7.492
7.556
7.772
7.724
7.54
7.556
7.788
7.8
7.604
7.576
7.788
7.864
7.692
7.58
7.772
7.94
7.76
7.604
7.756
7.992
7.84
7.68
7.776
8.028
7.94
7.764
7.864
8.112
8.048
7.892
7.928
8.196
8.232
8.056
8.036
8.264
8.388
8.228
8.128
8.32
8.544
8.38
8.268
8.416
8.652
8.504
8.36
8.444
8.648
8.524
8.296
8.308
8.452
8.34
8.112
8.044
8.172
8.164
7.912
7.82
7.968
8.016
7.788
7.644
7.804
7.936
7.732
7.596
7.744
7.912
7.752
7.576
7.676
7.92
7.8
7.608
7.672
7.904
7.856
7.648
7.668
7.872
7.868
7.7
7.652
7.824
7.896
7.732
7.616
7.788
7.948
7.74
7.592
7.736
7.944
7.78
7.588
7.692
7.904
7.792
7.628
7.672
7.872
7.816
7.624
7.632
7.84
7.844
7.66
7.592
7.768
7.86
7.672
7.56
7.728
7.88
7.692
7.532
7.676
7.872
7.744
7.564
7.652
7.852
7.736
7.576
7.62
7.836
7.78
7.576
7.604
7.82
7.836
7.632
7.576
7.756
7.824
7.668
7.54
7.7
7.844
7.684
7.528
7.676
7.9
7.768
7.62
7.744
7.972
7.812
7.656
7.772
8.012
7.972
7.74
7.724
7.896
7.88
7.68
7.628
7.808
7.884
7.68
7.568
7.716
7.844
7.644
7.492
7.616
7.848
7.68
7.5
7.6
7.78
7.736
7.536
7.536
7.648
7.616
7.52
7.72
8.288
8.824
9.264
9.728
9.936
9.484
8.756
8.164
7.804
7.652
7.488
7.456
7.66
7.9
7.816
7.636
7.692
7.912
7.796
7.608
7.66
7.864
7.824
7.636
7.644
7.836
7.872
7.672
7.608
7.812
7.912
7.764
7.64
7.812
7.968
7.808
7.684
7.824
8.012
7.868
7.7
7.8
8.044
7.94
7.768
7.82
8.068
8.044
7.844
7.864
8.056
8.116
7.948
7.928
8.092
8.196
8.08
7.988
8.172
8.356
8.18
8.072
8.252
8.496
8.352
8.208
8.36
8.604
8.544
8.372
8.452
8.68
8.664
8.524
8.536
8.72
8.744
8.536
8.444
8.564
8.608
8.372
8.168
8.292
8.376
8.176
7.952
8.032
8.168
8.004
7.808
7.836
8.032
7.932
7.724
7.756
7.96
7.9
7.74
7.732
7.908
7.94
7.732
7.668
7.852
7.96
7.756
7.648
7.796
7.952
7.812
7.632
7.776
7.968
7.82
7.652
7.744
7.944
7.848
7.664
7.716
7.9
7.88
7.676
7.684
7.852
7.908
7.708
7.632
7.82
7.92
7.74
7.636
7.788
7.94
7.76
7.584
7.72
7.904
7.776
7.596
7.692
7.916
7.816
7.624
7.672
7.876
7.856
7.644
7.62
7.808
7.86
7.696
7.584
7.776
7.876
7.712
7.56
7.748
7.908
7.744
7.556
7.72
7.92
7.796
7.604
7.672
7.872
7.812
7.632
7.664
7.848
7.824
7.652
7.648
7.824
7.864
7.688
7.62
7.804
7.912
7.716
7.572
7.728
7.94
7.788
7.644
7.8
7.996
7.864
7.672
7.776
8.028
7.956
7.78
7.8
7.96
7.908
7.7
7.676
7.864
7.908
7.704
7.584
7.78
7.844
7.68
7.512
7.684
7.836
7.696
7.536
7.644
7.832
7.688
7.548
7.624
7.744
7.572
7.472
7.6
8.112
8.556
8.932
9.58
10.056
9.824
9.032
8.46
8.136
7.764
7.468
7.448
7.676
7.924
7.776
7.632
7.756
7.952
7.836
7.636
7.736
7.928
7.852
7.656
7.692
7.896
7.868
7.708
7.696
7.852
7.904
7.728
7.676
7.848
7.988
7.816
7.704
7.872
8.028
7.888
7.72
7.868
8.06
7.94
7.76
7.872
8.052
8.016
7.852
7.924
8.104
8.088
7.928
7.928
8.136
8.204
8.024
7.976
8.184
8.324
8.2
8.084
8.256
8.456
8.32
8.224
8.388
8.572
8.496
8.336
8.472
8.68
8.616
8.452
8.516
8.736
8.724
8.528
8.496
8.636
8.648
8.44
8.264
8.396
8.424
8.208
8.024
8.096
8.212
8.02
7.816
7.916
8.068
7.912
7.74
7.816
7.988
7.916
7.748
7.748
7.94
7.936
7.764
7.72
7.892
7.956
7.772
7.696
7.884
7.976
7.832
7.692
7.836
7.992
7.844
7.684
7.82
7.988
7.892
7.696
7.772
7.964
7.88
7.724
7.732
7.944
7.912
7.712
7.716
7.896
7.9
7.748
7.66
7.836
7.972
7.752
7.648
7.776
7.948
7.792
7.616
7.748
7.936
7.82
7.64
7.748
7.896
7.84
7.644
7.692
7.876
7.868
7.672
7.648
7.804
7.904
7.716
7.624
7.788
7.904
7.76
7.644
7.768
7.936
7.788
7.62
7.76
7.92
7.812
7.628
7.724
7.892
7.74
7.672
7.672
7.884
7.876
7.72
7.68
7.84
7.896
7.74
7.636
7.804
7.924
7.764
7.588
7.772
7.924
7.776
7.62
7.744
7.944
7.804
7.628
7.74
7.948
7.888
7.772
7.816
7.988
7.964
7.796
7.804
8.012
8.068
7.888
7.756
7.908
8.008
7.82
7.692
7.8
7.972
7.808
7.632
7.708
7.888
7.768
7.604
7.668
7.828
7.8
7.624
7.676
7.836
7.828
7.632
7.56
7.64
7.744
7.7
7.888
8.504
9.144
9.68
9.908
9.8
9.308
8.672
8.088
7.712
7.684
7.676
7.62
7.764
7.984
7.912
7.76
7.772
7.928
7.908
7.76
7.724
7.9
7.912
7.8
7.72
7.872
7.988
7.832
7.736
7.864
7.992
7.88
7.74
7.876
8.044
7.932
7.808
7.852
8.04
7.976
7.86
7.868
8.032
8.028
7.936
7.892
8.072
8.128
7.98
7.928
8.1
8.228
8.108
7.988
8.152
8.324
8.22
8.1
8.232
8.432
8.344
8.26
8.328
8.536
8.5
8.388
8.44
8.624
8.664
8.528
8.516
8.724
8.772
8.664
8.6
8.744
8.848
8.692
8.516
8.616
8.732
8.532
8.316
8.336
8.432
8.28
8.072
8.084
8.224
8.112
7.948
7.904
8.064
8.036
7.856
7.808
7.952
7.992
7.872
7.772
7.9
8.024
7.848
7.752
7.888
8.016
7.892
7.74
7.836
8.008
7.904
7.74
7.828
8.008
7.936
7.8
7.796
7.968
7.972
7.824
7.764
7.936
7.968
7.836
7.752
7.9
7.972
7.84
7.704
7.856
7.988
7.868
7.704
7.808
7.944
7.888
7.696
7.764
7.924
7.884
7.724
7.74
7.884
7.864
7.72
7.7
7.84
7.896
7.74
7.656
7.804
7.912
7.764
7.636
7.76
7.892
7.792
7.632
7.724
7.868
7.784
7.648
7.7
7.856
7.804
7.68
7.684
7.844
7.844
7.708
7.66
7.82
7.868
7.72
7.644
7.792
7.888
7.772
7.648
7.748
7.872
7.756
7.632
7.724
7.868
7.78
7.656
7.7
7.868
7.796
7.66
7.676
7.82
7.832
7.708
7.652
7.788
7.868
7.704
7.64
7.752
7.872
7.768
7.652
7.808
7.972
7.852
7.692
7.776
7.968
7.944
7.78
7.828
7.952
7.924
7.752
7.716
7.856
7.864
7.724
7.664
7.808
7.832
7.692
7.58
7.72
7.836
7.676
7.564
7.692
7.824
7.712
7.564
7.676
7.748
7.572
7.404
7.572
7.968
8.332
8.72
9.42
10.004
9.916
9.216
8.672
8.392
7.924
7.488
7.392
7.64
7.844
7.76
7.644
7.788
7.92
7.808
7.676
7.772
7.904
7.808
7.688
7.74
7.892
7.86
7.72
7.74
7.9
7.916
7.772
7.728
7.876
7.932
7.82
7.72
7.88
7.976
7.856
7.756
7.88
8.016
7.904
7.756
7.88
8.068
7.992
7.836
7.888
8.096
8.068
7.928
7.936
8.104
8.144
8.004
8
8.168
8.268
8.144
8.076
8.268
8.404
8.284
8.184
8.344
8.536
8.456
8.32
8.456
8.64
8.612
8.476
8.528
8.712
8.688
8.532
8.516
8.668
8.632
8.436
8.336
8.44
8.428
8.212
8.012
8.132
8.192
7.988
7.808
7.88
8.016
7.892
7.704
7.792
7.928
7.844
7.66
7.716
7.872
7.844
7.66
7.676
7.864
7.872
7.692
7.664
7.824
7.904
7.76
7.616
7.796
7.896
7.76
7.616
7.784
7.928
7.812
7.616
7.744
7.928
7.812
7.62
7.668
7.868
7.828
7.66
7.64
7.82
7.86
7.7
7.604
7.772
7.856
7.716
7.608
7.732
7.888
7.724
7.588
7.716
7.864
7.768
7.588
7.656
7.864
7.772
7.624
7.64
7.804
7.796
7.648
7.636
7.772
7.816
7.648
7.608
7.756
7.804
7.684
7.588
7.724
7.852
7.72
7.58
7.68
7.812
7.764
7.596
7.672
7.82
7.804
7.656
7.696
7.876
7.844
7.712
7.712
7.876
7.944
7.828
7.76
7.872
7.932
7.816
7.664
7.772
7.864
7.768
7.612
7.7
7.852
7.752
7.592
7.648
7.82
7.76
7.596
7.648
7.804
7.804
7.64
7.64
7.74
7.688
7.484
7.516
7.812
8.22
8.6
9.116
9.848
10.116
9.572
8.84
8.496
8.156
7.632
7.364
7.552
7.82
7.816
7.66
7.756
7.912
7.852
7.736
7.704
7.864
7.888
7.732
7.688
7.844
7.928
7.792
7.668
7.84
7.96
7.824
7.7
7.796
7.972
7.88
7.72
7.824
7.992
7.936
7.776
7.832
8.004
7.992
7.84
7.86
8.032
8.064
7.896
7.896
8.044
8.136
8.008
7.944
8.048
8.236
8.116
8.016
8.136
8.328
8.236
8.144
8.248
8.448
8.416
8.26
8.364
8.576
8.584
8.456
8.5
8.66
8.728
8.608
8.528
8.712
8.804
8.66
8.544
8.628
8.708
8.544
8.324
8.4
8.48
8.316
8.096
8.124
8.24
8.108
7.908
7.94
8.076
8.028
7.856
7.836
7.988
8.008
7.836
7.812
7.92
8
7.852
7.772
7.92
8.012
7.888
7.752
7.892
8.028
7.944
7.768
7.852
8.032
7.952
7.82
7.84
8.024
8.004
7.828
7.852
8
8.028
7.852
7.804
7.968
8.06
7.884
7.82
7.912
8.064
7.916
7.768
7.88
8.056
7.928
7.808
7.848
8.02
7.952
7.796
7.848
7.996
7.964
7.796
7.804
7.952
8.012
7.832
7.788
7.936
8.008
7.872
7.76
7.88
7.988
7.9
7.772
7.868
8.024
7.9
7.768
7.86
8.004
7.912
7.772
7.84
7.988
7.976
7.816
7.816
7.98
7.992
7.856
7.832
8
8.092
7.964
7.924
8.052
8.128
7.988
7.864
8.064
8.228
8.096
7.92
7.976
8.144
8.048
7.832
7.896
8.028
8.02
7.848
7.848
7.98
7.976
7.804
7.764
7.928
7.976
7.84
7.744
7.88
8.008
7.88
7.744
7.796
7.864
7.764
7.72
8.02
8.612
9.088
9.572
10.108
10.176
9.556
8.86
8.38
8.024
7.784
7.704
7.748
7.94
8.092
7.952
7.856
7.96
8.084
7.984
7.836
7.928
8.104
7.98
7.824
7.944
8.088
7.996
7.864
7.928
8.092
8.068
7.92
7.912
8.072
8.108
7.98
7.924
8.068
8.164
8.028
7.948
8.072
8.188
8.108
7.964
8.116
8.256
8.168
8.028
8.148
8.312
8.28
8.144
8.188
8.38
8.392
8.276
8.284
8.508
8.504
8.4
8.4
8.576
8.692
8.58
8.512
8.696
8.832
8.708
8.632
8.768
8.952
8.868
8.744
8.848
9
8.928
8.732
8.744
8.844
8.768
8.536
8.492
8.576
8.512
8.296
8.188
8.296
8.336
8.14
8.012
8.112
8.208
8.076
7.928
8
8.136
8.056
7.888
7.968
8.116
8.036
7.896
7.948
8.116
8.084
7.94
7.924
8.068
8.104
7.952
7.924
8.04
8.132
8.004
7.896
8.016
8.148
8.024
7.876
8.008
8.148
8.048
7.892
7.988
8.144
8.044
7.908
7.972
8.128
8.088
7.932
7.948
8.096
8.092
7.964
7.932
8.036
8.108
7.964
7.876
7.992
8.104
7.96
7.844
7.944
8.124
7.976
7.856
7.928
8.08
8.016
7.848
7.904
8.06
8.036
7.864
7.912
8.028
8.064
7.9
7.856
7.988
8.092
7.932
7.832
7.956
8.1
7.936
7.824
7.924
8.088
7.988
7.856
7.916
8.056
7.992
7.848
7.9
8.016
8.024
7.9
7.928
8.108
8.136
8.012
7.964
8.068
8.144
8.064
8.004
8.136
8.22
8.068
7.932
8.028
8.1
8
7.884
7.968
8.108
7.996
7.844
7.86
7.996
7.984
7.824
7.828
7.992
8.02
7.88
7.836
7.964
8.06
7.892
7.76
7.8
7.94
7.912
8.088
8.648
9.336
9.888
10.132
9.972
9.52
8.948
8.332
7.852
7.82
7.872
7.852
7.92
8.1
8.112
7.976
7.96
8.088
8.148
7.976
7.908
8.048
8.172
8.028
7.908
8.016
8.16
8.076
7.928
8.024
8.176
8.08
7.976
8.024
8.184
8.172
8.028
8.028
8.196
8.224
8.084
8.036
8.176
8.3
8.172
8.08
8.216
8.34
8.24
8.132
8.264
8.384
8.304
8.22
8.328
8.484
8.42
8.328
8.408
8.58
8.584
8.484
8.52
8.7
8.752
8.664
8.644
8.808
8.888
8.812
8.764
8.9
9.032
8.928
8.828
8.944
9.036
8.928
8.744
8.784
8.88
8.744
8.524
8.5
8.588
8.512
8.28
8.24
8.344
8.324
8.14
8.076
8.188
8.256
8.104
7.988
8.108
8.216
8.116
7.972
8.068
8.196
8.132
7.98
8.056
8.188
8.14
7.996
8.048
8.156
8.152
8.04
8.036
8.164
8.196
8.056
8.016
8.152
8.212
8.072
7.972
8.108
8.204
8.096
7.968
8.08
8.208
8.108
8
8.084
8.212
8.124
7.98
8.036
8.188
8.148
7.98
7.984
8.116
8.144
8.036
7.976
8.096
8.172
8.036
7.944
8.064
8.176
8.044
7.924
8.052
8.156
8.072
7.924
8.012
8.152
8.084
7.924
7.988
8.144
8.112
7.98
7.944
8.092
8.112
7.972
7.932
8.068
8.124
8.004
7.92
8.052
8.152
8.032
7.904
8.036
8.176
8.064
7.92
8.012
8.164
8.084
7.936
7.992
8.128
8.084
7.976
7.98
8.116
8.124
7.98
7.956
8.064
8.132
7.992
7.92
8.06
8.184
8.124
8.012
8.156
8.256
8.148
8.032
8.144
8.312
8.252
8.104
8.116
8.22
8.188
8.008
7.996
8.14
8.16
8.008
7.932
8.072
8.128
7.976
7.844
7.984
8.096
7.984
7.88
7.976
8.112
8.016
7.884
7.964
8.032
7.844
7.792
7.948
8.412
8.832
9.268
9.9
10.34
10.088
9.336
8.804
8.444
8.02
7.776
7.792
8.004
8.152
8.068
7.972
8.096
8.224
8.104
7.984
8.06
8.208
8.128
7.996
8.04
8.18
8.156
8.056
8.036
8.172
8.18
8.072
8.044
8.168
8.24
8.12
8.032
8.144
8.276
8.172
8.052
8.164
8.292
8.228
8.076
8.2
8.332
8.284
8.172
8.244
8.388
8.352
8.26
8.288
8.44
8.48
8.36
8.336
8.516
8.616
8.508
8.452
8.612
8.756
8.66
8.588
8.728
8.904
8.84
8.716
8.844
9.008
8.96
8.856
8.924
9.088
9.052
8.892
8.868
8.988
8.976
8.752
8.656
8.712
8.716
8.528
8.384
8.436
8.48
8.324
8.16
8.256
8.364
8.212
8.076
8.14
8.264
8.196
8.052
8.072
8.204
8.188
8.068
8.064
8.188
8.208
8.092
8.04
8.2
8.232
8.12
8.036
8.156
8.244
8.12
8.016
8.136
8.264
8.164
8.024
8.128
8.228
8.168
8.056
8.088
8.224
8.188
8.048
8.064
8.188
8.196
8.068
7.996
8.156
8.208
8.1
8.016
8.128
8.22
8.076
7.968
8.084
8.208
8.092
7.968
8.06
8.172
8.1
7.972
8.02
8.16
8.124
7.984
7.976
8.12
8.14
8.004
7.96
8.112
8.156
8.048
7.94
8.072
8.144
8.032
7.928
8.016
8.168
8.04
7.936
8.024
8.148
8.092
7.94
7.984
8.124
8.092
7.972
7.968
8.112
8.116
7.996
7.928
8.076
8.132
7.98
7.9
8.016
8.164
8.02
7.896
8.02
8.152
8.056
7.912
8.004
8.144
8.08
7.964
7.96
8.116
8.052
7.972
7.98
8.092
8.112
7.988
7.988
8.136
8.212
8.116
8.044
8.124
8.236
8.144
8.076
8.224
8.328
8.168
8.04
8.108
8.196
8.096
7.956
8.008
8.164
8.108
7.924
7.932
8.068
8.072
7.924
7.884
8.024
8.076
7.988
7.888
8.024
8.092
7.964
7.78
7.816
7.988
7.996
8.192
8.696
9.396
9.992
10.204
9.956
9.496
8.964
8.36
7.892
7.852
7.956
7.936
7.964
8.144
8.184
8.076
7.976
8.104
8.172
8.068
7.964
8.076
8.212
8.108
7.976
8.096
8.216
8.12
8.02
8.068
8.216
8.176
8.072
8.068
8.224
8.24
8.116
8.092
8.224
8.276
8.156
8.08
8.232
8.344
8.212
8.136
8.248
8.392
8.276
8.184
8.272
8.404
8.384
8.268
8.364
8.488
8.5
8.376
8.436
8.616
8.668
8.564
8.52
8.696
8.816
8.72
8.66
8.828
8.944
8.864
8.8
8.9
9.064
8.976
8.864
8.956
9.068
8.968
8.816
8.812
8.896
8.792
8.596
8.512
8.6
8.544
8.38
8.272
8.352
8.36
8.18
8.076
8.188
8.248
8.1
7.98
8.084
8.2
8.096
7.968
8.044
8.184
8.104
7.968
8.02
8.132
8.112
7.972
7.988
8.136
8.124
8.016
7.992
8.136
8.192
8.068
7.968
8.116
8.22
8.08
7.988
8.096
8.224
8.1
8.008
8.04
8.204
8.124
8.008
8.048
8.188
8.148
8.008
8.02
8.152
8.14
8.016
7.956
8.1
8.188
8.028
7.952
8.092
8.192
8.06
7.94
8.052
8.18
8.068
7.964
8.032
8.16
8.068
7.94
7.98
8.144
8.092
7.972
7.944
8.1
8.112
7.984
7.9
8.044
8.1
7.976
7.892
8.036
8.12
7.968
7.88
8.02
8.112
8
7.88
7.964
8.12
8.052
7.888
7.944
8.1
8.06
7.936
7.936
8.072
8.076
7.944
7.892
8.06
8.12
7.956
7.892
8.044
8.132
7.98
7.884
8.012
8.148
8.012
7.892
7.956
8.12
8.028
7.924
7.948
8.072
8.036
7.944
7.944
8.128
8.172
8.032
7.964
8.14
8.216
8.128
8.048
8.156
8.26
8.112
7.972
8.064
8.18
8.04
7.932
7.992
8.116
8.032
7.856
7.888
8.036
7.996
7.84
7.84
8
8.024
7.86
7.828
7.976
8.016
7.808
7.64
7.832
8.056
8.24
8.576
9.284
10.044
10.2
9.74
9.236
8.932
8.352
7.744
7.656
7.896
7.952
7.872
7.908
8.088
8.088
7.948
7.876
8.056
8.104
7.948
7.852
7.948
8.12
7.984
7.864
7.976
8.128
8.02
7.888
7.988
8.148
8.068
7.932
7.972
8.124
8.1
7.972
7.98
8.152
8.176
8.032
7.996
8.168
8.244
8.072
8.008
8.164
8.308
8.192
8.068
8.212
8.392
8.276
8.172
8.252
8.436
8.404
8.3
8.376
8.568
8.56
8.44
8.48
8.688
8.736
8.62
8.588
8.788
8.872
8.768
8.7
8.876
9.012
8.876
8.776
8.86
8.984
8.812
8.616
8.676
8.768
8.608
8.388
8.368
8.472
8.348
8.152
8.068
8.208
8.18
8.016
7.928
8.072
8.136
7.952
7.864
7.992
8.076
7.932
7.796
7.944
8.088
7.952
7.8
7.9
8.048
7.988
7.852
7.888
8.036
8.024
7.852
7.872
8.032
8.036
7.872
7.872
8.012
8.068
7.916
7.792
7.972
8.084
7.928
7.788
7.952
8.072
7.948
7.816
7.896
8.064
7.976
7.812
7.872
8.028
8.008
7.828
7.852
8.012
8.036
7.844
7.78
7.98
8.048
7.888
7.768
7.944
8.028
7.9
7.804
7.884
8.036
7.9
7.764
7.864
7.984
7.904
7.772
7.828
7.972
7.94
7.796
7.776
7.948
7.956
7.8
7.74
7.9
7.964
7.808
7.728
7.868
7.98
7.824
7.708
7.848
7.988
7.872
7.724
7.836
8.02
7.948
7.788
7.828
8.004
8.024
7.884
7.876
8.02
8.032
7.856
7.78
7.928
8.016
7.816
7.704
7.856
7.98
7.8
7.648
7.776
7.944
7.82
7.668
7.728
7.912
7.836
7.7
7.732
7.876
7.776
7.532
7.548
7.844
8.152
8.452
8.96
9.784
10.22
9.836
9.144
8.78
8.436
7.796
7.472
7.612
7.884
7.84
7.756
7.844
8.016
7.936
7.764
7.808
8
7.944
7.792
7.796
7.988
8.02
7.844
7.808
7.948
8.032
7.908
7.792
7.956
8.096
7.96
7.84
7.964
8.1
7.992
7.856
7.96
8.152
8.048
7.9
7.96
8.148
8.136
7.964
7.964
8.156
8.204
8.068
8.024
8.192
8.3
8.164
8.08
8.264
8.432
8.3
8.204
8.368
8.556
8.488
8.364
8.472
8.676
8.648
8.54
8.6
8.808
8.804
8.672
8.712
8.892
8.892
8.756
8.696
8.804
8.856
8.632
8.464
8.544
8.608
8.396
8.196
8.248
8.36
8.176
8.004
8.048
8.168
8.056
7.896
7.936
8.088
8.052
7.884
7.856
8.052
8.064
7.904
7.864
8.008
8.096
7.904
7.828
7.988
8.112
7.98
7.848
7.964
8.136
8.008
7.868
7.924
8.116
8.032
7.888
7.908
8.084
8.084
7.908
7.888
8.052
8.084
7.924
7.868
8.004
8.1
7.936
7.848
7.972
8.116
7.976
7.82
7.96
8.104
7.96
7.816
7.916
8.072
8.008
7.82
7.888
8.052
8.004
7.864
7.872
8.004
8.028
7.844
7.796
7.976
8.06
7.9
7.788
7.932
8.076
7.92
7.772
7.916
8.06
7.94
7.812
7.872
8.032
7.98
7.808
7.864
8.036
8.012
7.828
7.848
8.056
8.104
7.956
7.928
8.076
8.16
7.988
7.92
8.112
8.224
8.088
7.932
8.008
8.148
7.984
7.864
7.94
8.1
8
7.86
7.904
8.048
7.98
7.792
7.804
7.988
8.012
7.856
7.792
7.964
8.044
7.888
7.772
7.844
7.908
7.832
7.86
8.32
8.976
9.428
9.912
10.228
9.968
9.296
8.62
8.184
7.916
7.828
7.824
7.884
8.076
8.168
8.008
7.944
8.096
8.164
7.988
7.916
8.04
8.164
8.04
7.912
8.036
8.2
8.084
7.952
8.016
8.208
8.104
7.976
8.024
8.184
8.164
8.028
8.016
8.212
8.256
8.1
8.04
8.2
8.308
8.168
8.056
8.188
8.36
8.224
8.128
8.236
8.412
8.32
8.184
8.308
8.476
8.44
8.324
8.388
8.604
8.608
8.452
8.492
8.7
8.776
8.656
8.644
8.828
8.944
8.828
8.756
8.924
9.076
8.936
8.82
8.94
9.096
8.952
8.776
8.788
8.896
8.78
8.536
8.492
8.604
8.524
8.28
8.252
8.352
8.344
8.168
8.064
8.212
8.272
8.1
7.988
8.128
8.26
8.092
7.972
8.072
8.236
8.104
7.964
8.048
8.188
8.14
7.992
8.032
8.204
8.18
7.996
8.012
8.196
8.224
8.04
8.004
8.144
8.268
8.096
7.984
8.14
8.284
8.112
7.984
8.088
8.248
8.152
8.008
8.084
8.236
8.164
7.992
8.036
8.204
8.172
8.032
8.016
8.164
8.216
8.052
7.984
8.112
8.22
8.072
7.972
8.104
8.224
8.068
7.956
8.064
8.192
8.08
7.944
8.024
8.18
8.108
7.948
8.012
8.148
8.156
7.976
7.968
8.12
8.16
7.996
7.952
8.088
8.184
8.036
7.928
8.048
8.208
8.06
7.924
8.028
8.216
8.068
7.928
7.996
8.188
8.116
7.968
7.976
8.156
8.136
7.984
7.984
8.124
8.176
7.992
7.956
8.156
8.26
8.092
8.028
8.192
8.288
8.148
8.032
8.192
8.356
8.264
8.072
8.14
8.28
8.168
8.008
8.036
8.212
8.192
8.02
7.996
8.148
8.144
7.984
7.892
8.052
8.184
8.012
7.896
8.044
8.188
8.056
7.928
7.972
8.056
7.912
7.868
8.176
8.756
9.188
9.676
10.22
10.388
9.808
9.096
8.568
8.22
7.964
7.86
7.888
8.116
8.276
8.116
8.012
8.144
8.268
8.108
7.996
8.108
8.268
8.148
7.992
8.076
8.252
8.184
8.048
8.064
8.232
8.22
8.08
8.064
8.228
8.256
8.132
8.084
8.216
8.316
8.184
8.052
8.22
8.384
8.244
8.092
8.22
8.4
8.304
8.18
8.272
8.428
8.376
8.264
8.324
8.488
8.5
8.368
8.396
8.572
8.644
8.52
8.496
8.696
8.836
8.692
8.62
8.82
8.984
8.876
8.776
8.916
9.08
9.02
8.896
8.992
9.124
9.056
8.88
8.864
8.988
8.916
8.696
8.584
8.672
8.66
8.444
8.304
8.424
8.46
8.28
8.108
8.224
8.316
8.168
8
8.144
8.264
8.148
8.004
8.092
8.216
8.136
8.012
8.048
8.188
8.176
8.056
8.032
8.176
8.212
8.064
8.028
8.168
8.26
8.112
7.988
8.164
8.276
8.132
7.984
8.116
8.256
8.136
8.024
8.08
8.224
8.172
8.02
8.044
8.208
8.176
8.028
7.996
8.184
8.208
8.04
7.98
8.148
8.22
8.052
7.932
8.1
8.184
8.06
7.92
8.052
8.172
8.068
7.92
8.012
8.132
8.084
7.944
7.984
8.132
8.096
7.94
7.92
8.1
8.136
7.968
7.88
8.056
8.124
7.984
7.892
8.012
8.124
8.008
7.864
8.016
8.116
8.028
7.856
7.976
8.112
8.056
7.896
7.928
8.088
8.088
7.94
7.908
8.088
8.088
7.96
7.908
8.036
8.116
7.984
7.876
8.028
8.128
7.996
7.872
8.012
8.144
8.044
7.896
7.968
8.132
8.076
7.928
7.948
8.12
8.088
7.964
7.936
8.108
8.132
7.976
7.908
8.068
8.16
8.032
7.896
8.04
8.148
8.036
7.908
8.02
8.156
8.064
7.924
8.008
8.204
8.148
8.048
8.1
8.224
8.196
8.076
8.08
8.292
8.3
8.112
8.016
8.172
8.2
8.088
7.936
8.084
8.192
8.036
7.896
8.008
8.104
8.016
7.868
7.968
8.112
8.052
7.9
7.944
8.12
8.076
7.908
7.788
7.948
8.064
8.096
8.392
9.06
9.724
10.184
10.196
9.82
9.352
8.736
8.112
7.872
8.012
8.024
7.952
8.068
8.26
8.208
8.048
8.012
8.192
8.184
8.052
8.012
8.156
8.192
8.052
7.992
8.144
8.228
8.084
7.976
8.136
8.236
8.14
8.004
8.128
8.264
8.188
8.044
8.132
8.272
8.212
8.092
8.136
8.292
8.268
8.148
8.152
8.34
8.352
8.232
8.176
8.352
8.432
8.324
8.224
8.432
8.54
8.456
8.38
8.5
8.664
8.596
8.52
8.608
8.812
8.76
8.652
8.708
8.912
8.916
8.82
8.812
9.044
9.06
8.952
8.888
9.044
9.084
8.936
8.8
8.896
8.924
8.752
8.556
8.592
8.684
8.488
8.3
8.32
8.444
8.32
8.152
8.136
8.284
8.24
8.084
8.032
8.188
8.22
8.048
8.004
8.172
8.232
8.08
7.972
8.148
8.252
7.984
8.004
8.08
8.248
8.148
8.012
8.072
8.24
8.192
8.036
8.076
8.24
8.192
8.056
8.052
8.212
8.208
8.08
8.024
8.196
8.272
8.132
8.036
8.152
8.268
8.128
8.008
8.12
8.244
8.136
8.016
8.092
8.216
8.172
8.016
8.08
8.22
8.208
8.06
8.016
8.204
8.212
8.088
8.012
8.152
8.236
8.068
7.98
8.112
8.232
8.104
7.968
8.096
8.228
8.12
7.976
8.076
8.228
8.136
8
8.028
8.192
8.168
8.036
7.976
8.168
8.188
8.04
7.972
8.144
8.204
8.064
7.944
8.128
8.208
8.076
7.956
8.06
8.224
8.116
7.98
8.016
8.18
8.124
7.976
7.988
8.172
8.112
8.012
7.996
8.14
8.14
8.016
7.952
8.112
8.18
8.048
7.932
8.072
8.196
8.068
7.94
8.044
8.184
8.096
7.972
8.02
8.188
8.104
7.976
8.008
8.192
8.1
7.984
7.976
8.156
8.144
8.02
7.964
8.096
8.172
8.044
7.936
8.06
8.184
8.008
7.94
8.068
8.22
8.132
8.036
8.096
8.248
8.172
8.056
8.132
8.3
8.268
8.088
8.036
8.168
8.188
8.032
7.952
8.1
8.168
8
7.864
7.996
8.104
7.94
7.816
7.916
8.096
7.964
7.848
7.888
8.072
7.984
7.804
7.708
7.932
8.02
8.176
8.6
9.304
9.976
10.2
9.916
9.476
9.028
8.376
7.812
7.768
7.972
7.944
7.88
8.04
8.156
8.056
7.924
7.968
8.108
8.036
7.936
7.972
8.124
8.108
7.964
7.952
8.112
8.148
7.988
7.928
8.096
8.16
8.02
7.916
8.056
8.184
8.056
7.96
8.076
8.236
8.112
8.012
8.092
8.268
8.176
8.06
8.104
8.308
8.288
8.132
8.136
8.336
8.388
8.252
8.216
8.368
8.488
8.34
8.308
8.472
8.624
8.508
8.44
8.56
8.788
8.668
8.592
8.688
8.884
8.852
8.744
8.792
8.988
8.996
8.88
8.864
9.008
9.028
8.824
8.732
8.832
8.836
8.6
8.44
8.504
8.576
8.352
8.172
8.228
8.308
8.136
8.02
8.056
8.164
8.084
7.944
7.96
8.1
8.052
7.916
7.916
8.092
8.064
7.928
7.872
8.024
8.116
7.912
7.86
8.012
8.144
7.98
7.876
7.98
8.132
7.992
7.9
7.964
8.136
8.008
7.876
7.928
8.12
8.092
7.916
7.896
8.06
8.108
7.928
7.872
8.028
8.112
7.944
7.872
7.992
8.104
7.94
7.86
7.944
8.104
7.968
7.828
7.904
8.072
8
7.848
7.888
8.036
8.024
7.86
7.852
8.008
8.028
7.876
7.816
7.972
8.06
7.88
7.804
7.936
8.068
7.904
7.816
7.912
8.06
7.948
7.804
7.864
8.032
7.976
7.816
7.864
8.012
7.98
7.788
7.832
7.96
7.98
7.828
7.792
7.94
8.052
7.868
7.792
7.932
8.08
7.904
7.78
7.884
8.04
7.912
7.808
7.844
8.024
7.928
7.788
7.824
7.988
7.972
7.8
7.788
7.976
8.004
7.82
7.792
7.94
8.04
7.912
7.852
7.944
8.092
7.916
7.88
8.032
8.152
8.016
7.856
7.96
8.096
7.972
7.816
7.86
8.02
7.988
7.792
7.784
7.924
7.956
7.776
7.768
7.904
7.984
7.816
7.732
7.892
8.008
7.816
7.6
7.672
7.876
7.876
8.044
8.616
9.36
9.944
10.068
9.82
9.392
8.88
8.236
7.768
7.732
7.836
7.74
7.784
7.968
8.096
7.904
7.816
7.952
8.092
7.932
7.8
7.928
8.072
7.948
7.84
7.924
8.092
7.984
7.848
7.92
8.096
8.06
7.896
7.908
8.096
8.108
7.916
7.892
8.072
8.18
8.028
7.924
8.072
8.236
8.1
7.98
8.132
8.272
8.172
8.028
8.172
8.356
8.276
8.128
8.196
8.392
8.412
8.256
8.28
8.488
8.552
8.404
8.404
8.592
8.724
8.592
8.544
8.716
8.868
8.772
8.676
8.836
8.992
8.908
8.752
8.844
9.008
8.932
8.684
8.704
8.808
8.72
8.464
8.412
8.488
8.448
8.212
8.108
8.236
8.268
8.068
7.936
8.068
8.18
8.004
7.852
7.988
8.14
8
7.828
7.948
8.1
8.02
7.844
7.908
8.056
8.048
7.872
7.872
8.048
8.096
7.9
7.86
8.016
8.112
7.948
7.824
7.988
8.108
7.976
7.82
7.944
8.12
7.996
7.84
7.94
8.088
8.02
7.832
7.916
8.076
8.048
7.868
7.86
8.056
8.092
7.92
7.86
7.992
8.104
7.912
7.816
7.972
8.108
7.936
7.784
7.944
8.1
7.952
7.792
7.916
8.056
7.956
7.792
7.876
8.02
8.004
7.84
7.836
8
8.048
7.848
7.808
7.956
8.068
7.884
7.776
7.952
8.092
7.928
7.764
7.908
8.08
7.968
7.788
7.884
8.044
7.972
7.812
7.88
8.028
8.008
7.852
7.828
8.008
8.036
7.864
7.776
7.972
8.064
7.9
7.768
7.956
8.096
7.964
7.844
7.996
8.156
8
7.864
8.048
8.224
8.144
7.92
7.988
8.128
8.096
7.884
7.884
8.056
8.108
7.904
7.784
7.96
8.044
7.876
7.752
7.904
8.044
7.9
7.768
7.904
8.064
7.944
7.736
7.74
7.888
7.912
7.92
8.38
9.048
9.648
10.056
10.12
9.768
9.24
8.552
7.996
7.796
7.908
7.828
7.808
8.02
8.192
8.032
7.86
7.972
8.16
7.996
7.844
7.936
8.128
8.056
7.884
7.936
8.092
8.072
7.912
7.892
8.104
8.144
7.956
7.888
8.088
8.18
8.024
7.896
8.072
8.24
8.092
7.932
8.08
8.244
8.148
7.996
8.104
8.272
8.22
8.08
8.128
8.316
8.344
8.176
8.16
8.372
8.46
8.308
8.24
8.476
8.612
8.476
8.38
8.584
8.756
8.636
8.532
8.736
8.928
8.772
8.648
8.8
9.016
8.952
8.8
8.836
9.004
8.984
8.76
8.66
8.796
8.8
8.568
8.376
8.516
8.548
8.316
8.136
8.26
8.344
8.14
7.94
8.088
8.236
8.096
7.904
7.992
8.156
8.084
7.908
7.896
8.092
8.088
7.9
7.876
8.052
8.132
7.956
7.864
8.052
8.156
8
7.86
8.024
8.172
8.032
7.868
8.008
8.176
8.052
7.928
7.992
8.14
8.08
7.908
7.956
8.12
8.108
7.928
7.88
8.104
8.16
7.98
7.876
8.06
8.164
7.976
7.844
8.024
8.164
8
7.844
7.984
8.12
8.024
7.844
7.96
8.128
8.04
7.864
7.88
8.084
8.084
7.876
7.852
8.056
8.08
7.912
7.808
8
8.112
7.924
7.824
7.972
8.116
7.952
7.8
7.932
8.124
8.004
7.828
7.908
8.092
8.044
7.86
7.864
8.036
8.08
7.892
7.848
8.04
8.104
7.9
7.808
8.012
8.128
7.948
7.8
7.988
8.124
7.98
7.792
7.94
8.128
8.008
7.852
7.924
8.088
8.044
7.884
7.896
8.076
8.06
7.912
7.872
8.052
8.104
7.912
7.824
8.004
8.116
7.964
7.812
7.988
8.152
7.992
7.84
7.972
8.156
8.032
7.912
8.032
8.184
8.124
7.956
7.968
8.192
8.22
8.068
8.004
8.16
8.208
7.972
7.864
8.048
8.172
7.984
7.868
8.012
8.132
7.932
7.8
7.936
8.096
7.976
7.816
7.888
8.064
8.036
7.84
7.86
7.948
7.9
7.772
7.848
8.332
8.884
9.232
9.848
10.348
10.148
9.352
8.716
8.372
8.096
7.808
7.764
7.976
8.204
8.12
7.964
8.024
8.18
8.132
7.964
7.956
8.156
8.156
7.988
7.936
8.132
8.184
8.028
7.924
8.092
8.224
8.052
7.944
8.112
8.256
8.108
7.98
8.072
8.264
8.176
8.036
8.12
8.304
8.24
8.064
8.124
8.328
8.348
8.16
8.148
8.336
8.44
8.264
8.164
8.376
8.524
8.38
8.28
8.464
8.648
8.496
8.416
8.596
8.76
8.708
8.58
8.7
8.92
8.896
8.752
8.792
9.008
9.076
8.916
8.872
9.072
9.156
8.98
8.856
8.992
9.052
8.84
8.632
8.728
8.816
8.58
8.364
8.436
8.508
8.388
8.156
8.188
8.344
8.268
8.076
8.064
8.224
8.244
8.064
8.004
8.176
8.216
8.06
7.956
8.12
8.26
8.064
7.936
8.092
8.224
8.072
7.936
8.056
8.216
8.136
7.984
8.06
8.216
8.192
7.992
8.028
8.192
8.184
8.016
7.968
8.164
8.24
8.044
7.924
8.116
8.26
8.084
7.928
8.1
8.26
8.096
7.944
8.052
8.216
8.112
7.952
8.02
8.184
8.16
7.96
7.956
8.164
8.196
8
7.936
8.1
8.176
8.016
7.912
8.092
8.204
8.02
7.892
8.048
8.2
8.036
7.908
8.036
8.188
8.096
7.928
7.948
8.144
8.116
7.944
7.92
8.136
8.148
7.976
7.888
8.112
8.164
7.98
7.868
8.076
8.184
8.008
7.852
8.024
8.184
8.032
7.856
7.996
8.152
8.072
7.904
7.936
8.144
8.1
7.916
7.924
8.14
8.16
7.96
7.908
8.12
8.208
8
7.868
8.076
8.244
8.044
7.888
8.024
8.232
8.064
7.872
7.988
8.22
8.128
7.908
7.956
8.204
8.148
7.948
7.892
8.18
8.192
7.992
7.868
8.116
8.236
8.024
7.876
8.048
8.24
8.044
7.836
8.012
8.264
8.128
7.948
8.08
8.312
8.172
7.964
8.016
8.344
8.336
8.072
8.004
8.252
8.26
8.024
7.892
8.148
8.268
8.024
7.868
8.068
8.252
7.996
7.804
7.956
8.204
8.048
7.852
7.884
8.188
8.08
7.86
7.824
8.02
7.976
7.856
8.064
8.732
9.3
9.74
10.132
10.312
9.848
9.088
8.44
8.112
8.056
7.92
7.832
8.024
8.34
8.168
7.964
8.012
8.28
8.188
7.988
7.972
8.264
8.22
8.012
7.94
8.228
8.26
8.048
7.928
8.18
8.328
8.112
7.936
8.128
8.364
8.156
8
8.116
8.376
8.22
8.052
8.124
8.392
8.304
8.108
8.124
8.404
8.38
8.18
8.116
8.412
8.508
8.296
8.184
8.432
8.576
8.424
8.284
8.472
8.736
8.584
8.44
8.608
8.88
8.78
8.6
8.708
9.044
8.968
8.784
8.82
9.112
9.156
8.96
8.916
9.164
9.22
8.988
8.856
9.024
9.08
8.808
8.628
8.712
8.844
8.564
8.348
8.392
8.604
8.392
8.156
8.148
8.388
8.292
8.08
8.04
8.288
8.236
8.032
7.988
8.204
8.248
8.036
7.944
8.148
8.276
8.08
7.908
8.088
8.276
8.108
7.928
8.04
8.276
8.124
7.976
8.008
8.268
8.164
7.968
7.968
8.232
8.224
8.008
7.964
8.184
8.26
8.036
7.936
8.12
8.252
8.064
7.912
8.084
8.26
8.056
7.936
8.036
8.252
8.104
7.928
8.016
8.232
8.14
7.96
7.964
8.196
8.168
7.984
7.928
8.128
8.18
7.98
7.916
8.092
8.196
8.016
7.904
8.064
8.212
8.024
7.896
8
8.228
8.092
7.916
7.976
8.192
8.12
7.952
7.952
8.172
8.152
7.952
7.932
8.132
8.168
7.976
7.908
8.104
8.196
8.012
7.88
8.032
8.228
8.044
7.876
8.004
8.192
8.076
7.9
7.968
8.18
8.096
7.928
7.948
8.164
8.144
7.944
7.916
8.104
8.164
7.932
7.848
8.044
8.16
7.976
7.86
7.996
8.164
7.992
7.848
7.984
8.164
8.012
7.864
7.948
8.184
8.048
7.88
7.92
8.14
8.116
7.9
7.896
8.096
8.148
7.928
7.852
8.012
8.156
7.976
7.86
8.028
8.252
8.068
7.904
8.008
8.232
8.14
7.996
8.04
8.232
8.132
7.92
7.924
8.12
8.112
7.904
7.856
8.024
8.084
7.88
7.776
7.948
8.084
7.868
7.744
7.924
8.076
7.912
7.768
7.868
8.044
7.84
7.628
7.776
8.18
8.476
8.812
9.436
10.232
10.3
9.62
9.036
8.752
8.296
7.692
7.58
7.9
8.1
7.944
7.848
8.008
8.144
7.98
7.828
7.932
8.132
7.984
7.832
7.904
8.116
8.052
7.848
7.884
8.092
8.092
7.876
7.88
8.068
8.136
7.948
7.88
8.06
8.2
8.028
7.92
8.068
8.24
8.088
7.932
8.076
8.276
8.164
8
8.076
8.288
8.264
8.076
8.12
8.324
8.364
8.188
8.168
8.392
8.496
8.328
8.288
8.476
8.632
8.488
8.408
8.588
8.808
8.692
8.564
8.692
8.94
8.876
8.708
8.8
9.028
8.976
8.808
8.788
8.972
8.96
8.7
8.612
8.736
8.72
8.444
8.28
8.388
8.464
8.216
8.016
8.124
8.272
8.092
7.912
7.936
8.14
8.008
7.82
7.884
8.084
8.024
7.804
7.856
8.044
8.028
7.836
7.784
7.988
8.072
7.868
7.776
7.948
8.092
7.892
7.784
7.92
8.092
7.912
7.768
7.904
8.1
7.964
7.816
7.864
8.064
7.988
7.82
7.852
8.016
8.04
7.84
7.804
7.972
8.068
7.836
7.784
7.92
8.064
7.876
7.752
7.884
8.06
7.88
7.724
7.836
8.02
7.908
7.744
7.828
8.004
7.94
7.764
7.748
7.964
7.98
7.804
7.764
7.932
8
7.784
7.708
7.9
8.012
7.804
7.7
7.792
8.004
7.86
7.68
7.776
7.968
7.852
7.708
7.756
7.948
7.908
7.704
7.732
7.924
7.92
7.728
7.68
7.904
7.976
7.744
7.684
7.84
7.988
7.792
7.648
7.808
7.984
7.86
7.72
7.856
8.052
7.916
7.74
7.804
8.048
8.044
7.828
7.812
8.012
8.024
7.804
7.752
7.924
8.012
7.8
7.672
7.828
7.968
7.76
7.616
7.764
7.968
7.816
7.628
7.76
7.948
7.848
7.672
7.72
7.82
7.708
7.548
7.728
8.252
8.748
9.136
9.748
10.188
9.928
9.104
8.568
8.256
7.928
7.592
7.524
7.8
8.04
7.912
7.752
7.872
8.056
7.936
7.772
7.828
8.028
7.964
7.796
7.82
8.032
8.02
7.82
7.8
8
8.088
7.872
7.784
7.976
8.148
7.952
7.812
7.96
8.148
8.004
7.844
7.936
8.168
8.044
7.88
7.988
8.184
8.16
7.96
7.992
8.2
8.232
8.052
8.032
8.236
8.368
8.176
8.092
8.284
8.5
8.332
8.216
8.432
8.636
8.544
8.404
8.564
8.784
8.704
8.548
8.684
8.892
8.892
8.68
8.732
8.936
8.972
8.764
8.688
8.828
8.84
8.604
8.432
8.532
8.62
8.36
8.136
8.256
8.356
8.18
7.948
8.048
8.22
8.084
7.868
7.948
8.104
8.056
7.884
7.872
8.064
8.08
7.872
7.856
8.036
8.124
7.904
7.82
8.004
8.14
7.976
7.82
7.996
8.16
8.024
7.864
7.968
8.172
8.056
7.884
7.968
8.152
8.092
7.9
7.9
8.112
8.124
7.9
7.872
8.076
8.176
7.972
7.844
8.028
8.192
8.008
7.824
8.012
8.168
8.024
7.856
7.968
8.176
8.048
7.84
7.932
8.136
8.068
7.88
7.892
8.08
8.112
7.904
7.848
8.056
8.12
7.944
7.848
8.012
8.148
7.964
7.808
7.996
8.156
8
7.824
7.936
8.16
8.044
7.852
7.94
8.128
8.084
7.892
7.908
8.104
8.108
7.92
7.876
8.072
8.156
7.968
7.848
8
8.168
7.996
7.824
7.968
8.16
8.04
7.84
7.992
8.2
8.144
7.984
8.044
8.216
8.184
7.964
8.028
8.244
8.276
8.06
8
8.16
8.224
8
7.892
8.068
8.212
8.032
7.852
7.972
8.132
8
7.824
7.928
8.128
8.024
7.836
7.896
8.104
8.048
7.86
7.812
7.944
7.988
7.904
8.1
8.724
9.364
9.844
10.188
10.172
9.712
8.984
8.368
7.992
7.96
7.924
7.828
8.04
8.256
8.172
7.976
8.02
8.224
8.192
7.984
8.004
8.176
8.2
8.02
7.96
8.12
8.22
8.028
7.956
8.116
8.248
8.104
7.936
8.1
8.284
8.152
7.996
8.1
8.292
8.228
8.06
8.092
8.292
8.292
8.104
8.132
8.284
8.356
8.208
8.152
8.352
8.46
8.304
8.22
8.396
8.576
8.424
8.304
8.468
8.668
8.592
8.456
8.588
8.804
8.756
8.608
8.708
8.936
8.952
8.776
8.832
9.032
9.084
8.924
8.876
9.048
9.148
8.956
8.808
8.892
8.98
8.768
8.564
8.6
8.696
8.508
8.292
8.34
8.468
8.336
8.12
8.148
8.28
8.256
8.064
8.036
8.192
8.244
8.052
8.004
8.14
8.228
8.084
7.956
8.108
8.244
8.072
7.944
8.068
8.232
8.124
7.952
8.06
8.244
8.164
7.968
8.036
8.208
8.204
8.02
8.008
8.184
8.228
8.032
7.976
8.156
8.236
8.064
7.924
8.084
8.244
8.088
7.952
8.068
8.24
8.12
7.948
7.996
8.216
8.144
7.976
8.008
8.176
8.156
7.976
7.992
8.14
8.188
8.012
7.968
8.104
8.224
8.044
7.952
8.092
8.228
8.068
7.92
8.056
8.204
8.092
7.948
8
8.212
8.128
7.916
7.984
8.192
8.172
7.952
7.964
8.148
8.2
7.988
7.952
8.104
8.22
8.056
7.928
8.068
8.2
8.08
7.912
8.072
8.244
8.12
7.928
8.02
8.22
8.132
7.936
7.988
8.164
8.172
7.992
7.96
8.108
8.176
8.016
7.96
8.096
8.208
8.048
7.96
8.132
8.296
8.184
8.028
8.144
8.328
8.232
8.072
8.216
8.36
8.276
8.1
8.108
8.216
8.204
8.012
8
8.156
8.18
8
7.92
8.052
8.192
7.98
7.856
8.028
8.176
8.032
7.86
7.992
8.168
8.04
7.776
7.832
8.06
8.164
8.328
8.868
9.612
10.248
10.304
9.872
9.464
9.024
8.332
7.792
7.892
8.128
8.06
7.984
8.108
8.296
8.124
7.976
8.076
8.236
8.132
7.972
8.064
8.236
8.16
7.988
8.048
8.192
8.216
8.032
8.02
8.18
8.268
8.084
8.024
8.176
8.304
8.124
8.032
8.204
8.348
8.212
8.04
8.196
8.38
8.276
8.1
8.212
8.388
8.356
8.208
8.268
8.444
8.448
8.304
8.34
8.508
8.58
8.44
8.412
8.592
8.736
8.608
8.528
8.716
8.904
8.82
8.672
8.82
9.028
8.988
8.84
8.94
9.124
9.092
8.948
8.988
9.12
9.096
8.876
8.804
8.896
8.9
8.648
8.532
8.596
8.64
8.432
8.232
8.332
8.44
8.272
8.06
8.148
8.292
8.192
7.988
8.096
8.236
8.164
7.98
8.044
8.184
8.192
7.996
7.996
8.14
8.208
8.036
7.98
8.12
8.252
8.084
7.96
8.084
8.244
8.124
7.98
8.092
8.252
8.152
7.984
8.06
8.216
8.188
7.992
8.024
8.192
8.188
8.024
7.988
8.16
8.212
8.032
7.972
8.128
8.228
8.088
7.948
8.108
8.244
8.108
7.948
8.076
8.212
8.104
7.94
8.028
8.18
8.124
7.956
8.004
8.144
8.152
7.964
7.952
8.112
8.164
7.984
7.92
8.076
8.18
8.016
7.876
8.028
8.156
8.048
7.884
8.004
8.136
8.068
7.904
7.972
8.124
8.076
7.892
7.932
8.084
8.12
7.936
7.9
8.084
8.12
7.996
7.916
8.064
8.136
7.996
7.888
7.996
8.148
8.032
7.852
8.012
8.144
8.06
7.88
7.976
8.132
8.092
7.9
7.924
8.104
8.12
7.936
7.892
8.064
8.128
7.96
7.888
8.04
8.14
7.984
7.856
8.028
8.172
8.036
7.876
7.988
8.148
8.076
7.876
7.964
8.14
8.1
7.916
7.968
8.124
8.156
8.016
8.016
8.164
8.22
8.068
8.024
8.192
8.36
8.168
8.008
8.088
8.252
8.112
7.916
8.032
8.164
8.076
7.888
7.956
8.092
8.032
7.872
7.924
8.08
8.088
7.928
7.912
8.064
8.132
7.944
7.804
7.896
8.02
7.992
8.172
8.756
9.44
9.988
10.248
10.112
9.64
8.988
8.356
7.944
7.948
8
7.94
8.012
8.196
8.236
8.076
7.84
8.156
8.22
8.076
7.984
8.144
8.252
8.092
8.052
8.092
8.252
8.124
7.98
8.052
8.256
8.18
8.012
8.1
8.276
8.256
8.084
8.104
8.288
8.328
8.16
8.128
8.28
8.372
8.224
8.144
8.312
8.44
8.308
8.184
8.348
8.5
8.412
8.252
8.412
8.56
8.536
8.392
8.496
8.68
8.668
8.552
8.608
8.816
8.872
8.716
8.724
8.932
9.064
8.916
8.852
9.032
9.176
9.072
8.952
9.084
9.228
9.104
8.92
8.988
9.048
8.944
8.7
8.7
8.788
8.676
8.424
8.388
8.5
8.476
8.276
8.2
8.34
8.364
8.192
8.068
8.192
8.308
8.18
8.032
8.16
8.292
8.176
8.024
8.128
8.292
8.196
8.012
8.108
8.256
8.252
8.056
8.092
8.236
8.264
8.104
8.06
8.236
8.28
8.144
8.06
8.188
8.312
8.16
8.016
8.164
8.276
8.184
8.036
8.14
8.256
8.22
8.028
8.088
8.232
8.204
8.028
8.068
8.204
8.22
8.08
8.016
8.188
8.236
8.092
7.988
8.12
8.26
8.112
7.964
8.104
8.22
8.112
7.98
8.064
8.208
8.128
7.98
8.068
8.168
8.168
7.992
8.044
8.176
8.2
8.028
8
8.116
8.188
8.048
7.944
8.116
8.224
8.084
7.968
8.088
8.224
8.1
7.956
8.044
8.184
8.116
7.94
8.024
8.164
8.148
7.976
8
8.148
8.172
8.004
7.956
8.088
8.168
8.028
7.932
8.064
8.176
8.044
7.904
8.036
8.16
8.048
7.888
7.976
8.12
8.092
7.916
7.956
8.104
8.076
7.94
7.936
8.088
8.096
7.968
7.9
8.056
8.12
7.972
7.872
8.044
8.128
8.008
7.872
7.98
8.116
8.032
7.856
7.988
8.128
8.092
7.96
8.016
8.152
8.108
7.992
8.036
8.216
8.208
8.008
7.94
8.084
8.116
7.964
7.856
8.032
8.084
7.972
7.804
7.912
8.04
7.936
7.816
7.9
8.036
7.98
7.832
7.864
8.032
7.98
7.756
7.676
7.864
8.012
8.176
8.596
9.276
10.004
10.228
9.9
9.42
9.02
8.412
7.816
7.756
7.956
7.932
7.86
7.988
8.148
8.072
7.92
7.964
8.116
8.088
7.916
7.948
8.1
8.116
7.968
7.92
8.064
8.136
8.008
7.908
8.048
8.152
8.04
7.892
8.056
8.184
8.092
7.948
8.056
8.196
8.152
8.004
8.076
8.22
8.188
8.052
8.084
8.224
8.264
8.136
8.104
8.276
8.372
8.24
8.144
8.3
8.472
8.388
8.288
8.396
8.54
8.484
8.396
8.548
8.708
8.688
8.588
8.684
8.872
8.86
8.732
8.756
8.976
9.032
8.884
8.824
9.008
9.06
8.876
8.728
8.844
8.812
8.684
8.448
8.488
8.564
8.388
8.164
8.232
8.324
8.2
8.004
8.048
8.164
8.132
7.952
7.936
8.064
8.076
7.948
7.92
8.04
8.076
7.924
7.884
8.004
8.072
7.96
7.832
7.972
8.072
8.008
7.868
7.96
8.1
8
7.876
7.924
8.08
8.024
7.88
7.932
8.06
8.04
7.888
7.864
8.02
8.048
7.908
7.832
7.992
8.064
7.92
7.804
7.936
8.012
7.92
7.804
7.9
8.02
7.94
7.8
7.868
8.028
7.948
7.804
7.844
7.98
7.984
7.828
7.796
7.944
8.012
7.864
7.772
7.92
8
7.868
7.748
7.884
8.024
7.88
7.756
7.884
8.004
7.932
7.76
7.832
7.98
7.936
7.764
7.788
7.952
7.956
7.768
7.756
7.912
7.936
7.8
7.752
7.88
8
7.848
7.732
7.864
8.02
7.88
7.724
7.852
8.012
7.896
7.74
7.832
8.024
7.964
7.82
7.872
8.056
8.032
7.888
7.876
8.076
8.112
7.96
7.868
7.984
8.092
7.908
7.796
7.908
8.044
7.892
7.748
7.836
7.964
7.852
7.736
7.784
7.96
7.896
7.748
7.776
7.952
7.928
7.768
7.732
7.816
7.804
7.74
7.828
8.356
8.948
9.428
9.92
10.176
9.856
9.16
8.572
8.164
7.896
7.688
7.664
7.84
8.06
8.024
7.888
7.908
8.052
8.048
7.888
7.852
8.02
8.064
7.936
7.876
8.02
8.128
7.964
7.868
8.028
8.152
8.032
7.892
7.984
8.16
8.068
7.912
7.996
8.16
8.108
7.972
7.992
8.184
8.164
8.024
8.028
8.204
8.256
8.096
8.048
8.244
8.336
8.196
8.104
8.256
8.44
8.32
8.196
8.356
8.54
8.504
8.38
8.484
8.676
8.684
8.54
8.612
8.812
8.844
8.704
8.704
8.916
9.008
8.86
8.792
8.964
9.056
8.912
8.724
8.828
8.94
8.724
8.524
8.568
8.64
8.476
8.26
8.284
8.38
8.244
8.072
8.052
8.212
8.152
7.988
7.908
8.08
8.124
7.972
7.888
8.032
8.124
7.984
7.88
8.012
8.14
8.004
7.86
7.984
8.156
8.06
7.9
7.976
8.128
8.08
7.92
7.952
8.116
8.124
7.94
7.952
8.112
8.164
8
7.928
8.088
8.196
8.032
7.92
8.056
8.192
8.048
7.936
8.04
8.16
8.064
7.936
7.996
8.14
8.072
7.936
7.96
8.14
8.096
7.948
7.904
8.064
8.14
7.976
7.872
8.028
8.14
7.98
7.86
8.016
8.116
7.996
7.872
7.948
8.116
8.016
7.864
7.948
8.08
8.02
7.872
7.924
8.076
8.08
7.892
7.88
8.028
8.096
7.944
7.852
8.012
8.132
7.952
7.876
7.992
8.12
7.988
7.852
7.968
8.124
8.02
7.848
7.928
8.128
8.056
7.904
7.912
8.08
8.1
7.936
7.892
8.068
8.124
7.932
7.9
8.056
8.172
8.04
7.92
8.072
8.232
8.064
7.96
8.112
8.276
8.184
8.016
8.04
8.168
8.116
7.964
7.964
8.132
8.112
7.964
7.928
8.06
8.104
7.936
7.852
8.012
8.128
7.964
7.856
7.988
8.104
7.976
7.808
7.844
8
8
8.136
8.672
9.348
9.972
10.252
10.128
9.668
9.112
8.472
7.948
7.88
8.032
7.976
7.96
8.152
8.232
8.072
7.968
8.06
8.216
8.064
7.948
8.06
8.188
8.104
7.952
8.04
8.188
8.14
8
8.004
8.196
8.196
8.056
8.012
8.188
8.232
8.068
8.016
8.172
8.28
8.144
8.028
8.184
8.332
8.184
8.08
8.196
8.372
8.268
8.144
8.224
8.408
8.404
8.268
8.304
8.492
8.524
8.376
8.4
8.588
8.66
8.548
8.496
8.716
8.852
8.708
8.664
8.808
9.016
8.92
8.8
8.928
9.12
9.06
8.928
8.996
9.144
9.08
8.864
8.86
8.948
8.872
8.64
8.548
8.636
8.652
8.392
8.264
8.36
8.424
8.248
8.096
8.168
8.304
8.156
8.004
8.084
8.24
8.148
7.984
8.044
8.204
8.168
7.976
8
8.188
8.172
8
7.976
8.144
8.188
8.04
7.972
8.108
8.24
8.068
7.976
8.116
8.244
8.116
7.98
8.056
8.232
8.148
7.988
8.06
8.196
8.18
8.02
8.04
8.208
8.196
8.048
8.028
8.16
8.228
8.064
7.972
8.124
8.228
8.076
7.96
8.076
8.232
8.088
7.968
8.052
8.2
8.12
7.96
7.996
8.18
8.112
7.968
7.988
8.16
8.16
7.972
7.964
8.116
8.164
7.992
7.908
8.068
8.196
8.052
7.924
8.044
8.168
8.068
7.936
8.036
8.192
8.104
7.944
8.016
8.172
8.132
7.96
7.968
8.168
8.164
7.984
7.944
8.072
8.184
8.032
7.92
8.076
8.192
8.044
7.92
8.044
8.188
8.088
7.928
8.036
8.212
8.112
7.952
8
8.192
8.156
7.984
7.988
8.152
8.164
7.996
7.984
8.112
8.172
8.028
7.956
8.1
8.22
8.06
7.952
8.08
8.22
8.08
7.948
8.036
8.2
8.136
7.976
8.04
8.204
8.136
7.984
8.008
8.164
8.16
8.012
7.968
8.136
8.228
8.088
8.02
8.18
8.336
8.168
8.016
8.16
8.344
8.248
8.132
8.192
8.296
8.208
8.032
8.076
8.22
8.188
8.032
8.028
8.188
8.188
7.984
7.936
8.088
8.192
8.016
7.92
8.072
8.196
8.04
7.936
8.036
8.14
7.964
7.784
7.976
8.316
8.616
8.976
9.652
10.412
10.46
9.792
9.216
8.856
8.392
7.864
7.82
8.1
8.232
8.14
8.056
8.212
8.308
8.14
8.024
8.152
8.284
8.136
8.016
8.088
8.264
8.2
8.04
8.108
8.264
8.208
8.1
8.092
8.256
8.28
8.124
8.1
8.26
8.32
8.168
8.108
8.284
8.4
8.244
8.116
8.248
8.416
8.316
8.196
8.3
8.46
8.376
8.26
8.34
8.5
8.476
8.36
8.38
8.604
8.624
8.504
8.496
8.704
8.816
8.692
8.632
8.816
8.976
8.868
8.784
8.948
9.112
9.032
8.936
9.056
9.224
9.152
9.024
9.068
9.192
9.128
8.928
8.868
8.964
8.928
8.712
8.568
8.664
8.684
8.468
8.32
8.416
8.48
8.324
8.192
8.268
8.372
8.248
8.108
8.176
8.316
8.236
8.088
8.128
8.28
8.252
8.1
8.104
8.248
8.268
8.12
8.088
8.232
8.296
8.148
8.056
8.192
8.32
8.172
8.032
8.156
8.324
8.2
8.048
8.148
8.3
8.228
8.076
8.112
8.268
8.248
8.1
8.104
8.256
8.252
8.116
8.068
8.228
8.3
8.116
8.056
8.192
8.312
8.16
8.024
8.144
8.276
8.16
8.036
8.14
8.26
8.184
8.036
8.072
8.252
8.216
8.028
8.056
8.224
8.232
8.08
8.016
8.172
8.252
8.108
7.992
8.112
8.24
8.084
7.996
8.108
8.224
8.1
7.98
8.064
8.248
8.148
7.98
8.056
8.216
8.164
7.996
8.012
8.184
8.216
8.036
7.992
8.168
8.24
8.08
7.992
8.128
8.248
8.108
7.964
8.104
8.248
8.128
7.996
8.064
8.228
8.172
8.008
8.06
8.208
8.192
8.02
8.044
8.192
8.2
8.068
8.016
8.152
8.24
8.088
7.988
8.104
8.256
8.1
8
8.12
8.272
8.14
8.02
8.08
8.228
8.152
8.024
8.056
8.224
8.192
8.036
8.028
8.184
8.188
8.04
7.984
8.136
8.272
8.144
8.076
8.228
8.328
8.192
8.072
8.212
8.408
8.3
8.132
8.16
8.324
8.232
8.052
8.096
8.236
8.228
8.064
8.044
8.192
8.192
8.032
7.968
8.136
8.188
8.04
7.968
8.1
8.216
8.08
7.96
8.052
8.124
7.956
7.9
8.18
8.704
9.152
9.592
10.224
10.5
10
9.276
8.776
8.424
8.076
7.892
7.968
8.2
8.32
8.176
8.088
8.208
8.308
8.16
8.048
8.168
8.328
8.188
8.072
8.144
8.296
8.22
8.084
8.14
8.28
8.276
8.116
8.132
8.288
8.332
8.184
8.116
8.268
8.384
8.204
8.124
8.296
8.424
8.3
8.184
8.32
8.464
8.352
8.252
8.34
8.504
8.456
8.324
8.4
8.58
8.576
8.428
8.452
8.656
8.716
8.584
8.564
8.728
8.884
8.736
8.72
8.884
9.04
8.94
8.876
9.016
9.212
9.108
8.996
9.104
9.288
9.208
9.056
9.072
9.2
9.14
8.912
8.852
8.94
8.896
8.652
8.54
8.616
8.648
8.412
8.268
8.384
8.468
8.272
8.152
8.228
8.372
8.248
8.112
8.16
8.312
8.264
8.088
8.136
8.276
8.272
8.104
8.112
8.276
8.308
8.14
8.084
8.26
8.324
8.176
8.064
8.2
8.348
8.2
8.088
8.2
8.352
8.232
8.104
8.168
8.344
8.24
8.108
8.168
8.296
8.276
8.116
8.12
8.276
8.308
8.128
8.068
8.212
8.316
8.156
8.052
8.164
8.304
8.132
8.04
8.14
8.28
8.172
8.008
8.108
8.256
8.176
8.016
8.064
8.204
8.208
8.04
8.036
8.164
8.204
8.052
8
8.12
8.22
8.056
7.976
8.108
8.232
8.084
7.964
8.06
8.228
8.112
7.948
8.02
8.164
8.148
7.98
8.02
8.148
8.164
7.98
7.976
8.128
8.172
8
7.964
8.092
8.196
8.012
7.928
8.056
8.208
8.068
7.9
8.02
8.176
8.088
7.932
8.004
8.148
8.084
7.932
7.968
8.12
8.124
7.936
7.928
8.08
8.152
7.976
7.912
8.052
8.156
7.988
7.9
8.008
8.172
8.024
7.868
7.98
8.144
8.056
7.912
7.976
8.128
8.084
7.88
7.924
8.1
8.104
7.92
7.92
8.036
8.164
7.988
7.96
8.076
8.236
8.036
7.96
8.08
8.268
8.184
8.036
8.092
8.216
8.12
7.948
7.996
8.124
8.088
7.924
7.932
8.064
8.052
7.88
7.848
7.988
8.048
7.892
7.836
7.96
8.048
7.912
7.8
7.956
8.044
7.808
7.668
7.876
8.24
8.552
8.956
9.632
10.332
10.264
9.528
9.032
8.7
8.184
7.696
7.672
7.932
8.084
7.94
7.92
8.06
8.18
7.968
7.884
8.008
8.156
8.024
7.904
8
8.16
8.076
7.912
7.988
8.144
8.104
7.952
7.988
8.136
8.16
7.988
7.98
8.096
8.204
8.012
7.976
8.108
8.248
8.092
7.988
8.136
8.28
8.164
8.06
8.168
8.348
8.248
8.12
8.22
8.372
8.356
8.216
8.272
8.424
8.488
8.372
8.392
8.552
8.652
8.508
8.508
8.676
8.792
8.704
8.644
8.832
8.988
8.872
8.772
8.896
9.068
9.04
8.86
8.912
9.056
8.968
8.776
8.768
8.816
8.772
8.504
8.456
8.512
8.508
8.268
8.144
8.24
8.312
8.116
7.98
8.092
8.204
8.064
7.924
8
8.136
8.052
7.9
7.98
8.124
8.08
7.904
7.944
8.072
8.092
7.916
7.928
8.048
8.136
7.968
7.908
8.036
8.148
7.98
7.876
8.008
8.128
8.024
7.86
8.004
8.112
8.044
7.872
7.96
8.1
8.028
7.884
7.924
8.06
8.068
7.912
7.872
8.024
8.068
7.916
7.86
7.976
8.092
7.928
7.808
7.944
8.072
7.952
7.832
7.948
8.08
7.984
7.808
7.904
8.052
8.02
7.824
7.86
8.004
8.04
7.856
7.844
7.968
8.044
7.864
7.8
7.94
8.056
7.908
7.764
7.904
8.064
7.94
7.8
7.888
8.036
7.964
7.792
7.884
8.012
8.004
7.812
7.876
7.996
8.004
7.848
7.836
8.016
8.104
7.952
7.864
7.984
8.096
7.952
7.844
8
8.14
8.02
7.824
7.916
8.072
8.02
7.92
8.024
8.12
8.088
7.924
7.944
8.048
8.04
7.904
7.892
7.984
8.064
7.876
7.8
7.932
8.084
7.98
7.852
7.956
8.08
7.908
7.748
7.864
8.052
7.952
7.632
7.656
7.892
8.036
8.22
8.776
9.524
10.144
10.168
9.7
9.232
8.86
8.176
7.756
7.764
7.964
7.868
7.816
8.02
8.192
8.068
7.904
7.976
8.088
8.02
7.864
7.952
8.136
8.116
7.952
7.976
8.072
8.072
7.92
7.92
8.052
8.152
7.972
7.904
8.06
8.216
8.064
7.924
8.092
8.228
8.14
8.008
8.14
8.252
8.164
7.988
8.068
8.244
8.244
8.06
8.144
8.292
8.364
8.228
8.212
8.388
8.476
8.332
8.284
8.452
8.576
8.496
8.444
8.62
8.8
8.704
8.62
8.792
8.964
8.936
8.76
8.932
9.076
9.044
8.844
8.86
9.02
9.016
8.8
8.716
8.776
8.776
8.568
8.412
8.488
8.54
8.34
8.156
8.236
8.336
8.168
8.004
8.136
8.272
8.168
7.908
7.924
8.028
8.028
7.86
7.912
8.076
8.16
7.988
7.856
7.936
8.04
7.932
7.82
8
8.144
7.972
7.812
7.964
8.064
8.008
7.9
8.016
8.108
8.028
7.88
7.936
8.024
8.04
7.856
7.928
8.044
8.084
7.904
7.888
8.032
8.116
7.948
7.872
7.988
8.104
7.956
7.824
7.984
8.08
7.988
7.856
8.004
8.084
7.98
7.82
7.944
8.088
8.04
7.816
7.88
8.028
8.064
7.86
7.848
8.012
8.068
7.92
7.856
8
8.1
7.936
7.804
7.988
8.108
7.948
7.804
7.924
8.076
7.98
7.792
7.916
8.088
8.084
7.896
7.816
7.98
8.032
7.876
7.856
8
8.072
7.904
7.816
7.988
8.12
7.996
7.912
8.084
8.196
8.052
7.888
8.024
8.216
8.168
7.98
8.04
8.156
8.112
7.884
7.904
8.064
8.052
7.908
7.876
8.008
8.052
7.86
7.78
7.964
8.06
7.936
7.752
7.92
8.056
7.916
7.748
7.864
7.94
7.784
7.664
7.824
8.236
8.668
9.024
9.704
10.32
10.176
9.432
8.816
8.5
8.06
7.68
7.688
7.952
8.112
8.048
7.868
7.964
8.104
8
7.836
7.968
8.092
8.048
7.9
7.972
8.08
8.08
7.932
7.964
8.016
8.032
7.924
7.888
8.04
8.128
7.984
7.9
8.064
8.196
8.064
7.908
8.108
8.24
8.136
7.96
8.112
8.232
8.18
8.04
8.144
8.256
8.256
8.136
8.188
8.344
8.4
8.252
8.204
8.412
8.484
8.372
8.336
8.576
8.688
8.548
8.472
8.68
8.808
8.728
8.636
8.8
8.964
8.904
8.74
8.852
9.048
9.076
8.92
8.892
8.932
8.852
8.62
8.552
8.648
8.692
8.44
8.244
8.368
8.4
8.216
8.048
8.18
8.26
8.076
7.872
8.028
8.152
8.104
7.908
7.932
8.02
7.984
7.896
7.876
8.016
8.064
7.944
7.844
8.024
8.068
7.964
7.908
8.012
8.036
7.928
7.824
7.96
8.056
7.916
7.816
7.932
8.068
8.016
7.872
7.916
8.08
8.036
7.884
7.88
8.064
8.076
7.928
7.892
8.016
8.1
7.964
7.84
7.964
8.08
7.924
7.796
7.956
8.084
7.98
7.804
7.952
8.092
8.044
7.852
7.916
8.064
7.936
7.736
7.84
7.988
7.996
7.864
7.828
7.968
8.036
7.892
7.772
7.92
8.036
7.864
7.724
7.872
7.992
7.896
7.744
7.888
8.028
7.948
7.764
7.864
7.992
7.968
7.816
7.848
8.064
8.028
7.808
7.784
7.972
8.016
7.896
7.792
7.972
8.128
8.02
7.856
7.96
8.096
8.044
7.956
8.084
8.204
8.112
7.876
7.892
8.072
8.048
7.832
7.828
7.984
7.98
7.852
7.776
7.928
7.948
7.852
7.756
7.876
7.94
7.844
7.704
7.892
8.02
7.896
7.628
7.664
7.892
7.928
8.108
8.64
9.316
9.98
10.18
9.884
9.38
8.88
8.204
7.704
7.752
7.9
7.848
7.78
7.972
8.092
7.964
7.812
7.936
8.072
7.976
7.836
7.916
8.04
7.984
7.848
7.916
8.044
8.04
7.916
7.908
8.068
8.048
7.916
7.868
8.02
8.1
8.004
7.872
8.012
8.12
8.024
7.912
8.06
8.176
8.108
7.956
8.104
8.22
8.184
8.048
8.124
8.284
8.304
8.2
8.212
8.356
8.392
8.276
8.272
8.448
8.52
8.44
8.392
8.62
8.72
8.636
8.504
8.72
8.892
8.812
8.692
8.848
9.044
8.968
8.848
8.908
9.036
8.952
8.72
8.672
8.808
8.776
8.58
8.452
8.472
8.472
8.276
8.116
8.248
8.32
8.2
8.02
8.092
8.144
8.004
7.92
8.036
8.148
8.06
7.896
7.956
8.096
8.096
7.952
7.952
8.104
8.112
7.944
7.892
8.048
8.12
7.976
7.864
8.044
8.156
8.028
7.928
8.072
8.172
8.08
7.856
7.968
8.164
8.08
7.944
8.028
8.16
8.116
7.956
7.96
8.144
8.2
8.056
7.96
8.108
8.14
8
7.928
8.084
8.156
8.072
7.948
8.088
8.168
8.056
7.936
8.052
8.216
8.132
7.96
7.988
8.128
8.156
7.988
7.984
8.132
8.04
7.972
7.928
8.128
8.148
7.976
7.864
8.068
8.148
8.036
7.892
8.04
8.132
8.004
7.884
8.016
8.184
8.124
7.936
8.052
8.196
7.964
7.776
7.856
8.08
8.1
7.916
7.872
8.044
8.124
7.976
7.848
8.04
8.16
8.036
7.868
8.012
8.156
8.06
7.924
8.064
8.252
8.176
8.064
8.124
8.272
8.276
8.076
8.072
8.216
8.224
8.06
8.056
8.28
8.276
7.988
7.76
7.976
8.128
8.016
7.868
7.984
8.12
7.968
7.836
7.984
8.112
8.016
7.876
7.964
8.164
8.028
7.744
7.728
8.112
8.496
8.928
9.492
10.34
10.556
9.872
8.944
8.592
8.256
7.792
7.648
7.932
8.144
8.072
7.904
8.052
8.164
8.116
7.92
7.928
8.08
8.056
7.944
7.948
8.124
8.124
7.952
7.908
8.048
8.14
8.012
7.9
8.032
8.164
8.036
7.896
8.048
8.164
8.084
7.964
8.048
8.172
8.132
8
8.048
8.224
8.2
8.048
8.044
8.252
8.268
8.152
8.104
8.296
8.372
8.252
8.156
8.36
8.48
8.368
8.284
8.452
8.604
8.552
8.44
8.584
8.78
8.736
8.604
8.624
8.876
8.9
8.788
8.764
9.004
9.052
8.88
8.784
8.912
8.928
8.78
8.58
8.648
8.688
8.472
8.276
8.356
8.42
8.248
8.052
8.12
8.22
8.128
7.952
7.988
8.132
8.072
7.952
7.928
8.06
8.028
7.872
7.832
7.984
8.028
7.892
7.76
7.972
8.068
7.952
7.82
7.952
8.076
7.956
7.792
7.92
8.06
7.996
7.828
7.852
8.004
8
7.88
7.836
8.008
8.024
7.88
7.78
7.992
8.024
7.864
7.764
7.948
8.004
7.876
7.768
7.908
8.032
7.968
7.792
7.896
8.024
7.956
7.792
7.816
7.976
7.972
7.776
7.764
7.956
7.964
7.796
7.736
7.892
7.936
7.824
7.68
7.82
7.924
7.796
7.68
7.8
7.936
7.824
7.684
7.776
7.928
7.86
7.724
7.732
7.896
7.856
7.736
7.684
7.844
7.872
7.76
7.648
7.86
7.888
7.796
7.696
7.888
7.96
7.832
7.664
7.832
8.004
7.932
7.788
7.836
7.968
7.888
7.732
7.756
7.92
7.884
7.7
7.68
7.876
7.88
7.644
7.604
7.784
7.84
7.692
7.572
7.736
7.844
7.704
7.532
7.66
7.732
7.516
7.396
7.58
8.032
8.392
8.816
9.504
10.028
9.836
9.176
8.624
8.276
7.832
7.456
7.328
7.588
7.76
7.684
7.56
7.736
7.868
7.74
7.596
7.684
7.832
7.752
7.612
7.692
7.856
7.792
7.648
7.664
7.816
7.804
7.688
7.612
7.808
7.876
7.772
7.68
7.82
7.88
7.744
7.648
7.788
7.916
7.82
7.736
7.844
8
7.884
7.768
7.852
8.016
7.964
7.876
7.896
8.08
8.084
7.96
7.96
8.136
8.208
8.068
8.032
8.24
8.376
8.28
8.192
8.404
8.536
8.432
8.3
8.496
8.648
8.596
8.488
8.54
8.7
8.616
8.52
8.496
8.612
8.484
8.28
8.18
8.292
8.228
7.984
7.8
7.94
7.948
7.756
7.608
7.72
7.796
7.664
7.5
7.608
7.736
7.596
7.492
7.56
7.656
7.608
7.476
7.512
7.68
7.656
7.472
7.444
7.62
7.648
7.524
7.424
7.632
7.652
7.528
7.456
7.564
7.644
7.54
7.412
7.5
7.66
7.54
7.416
7.476
7.624
7.548
7.424
7.416
7.608
7.584
7.388
7.372
7.552
7.596
7.452
7.356
7.496
7.56
7.444
7.324
7.48
7.6
7.48
7.324
7.448
7.612
7.46
7.312
7.412
7.588
7.536
7.408
7.404
7.604
7.552
7.416
7.396
7.6
7.664
7.528
7.412
7.556
7.636
7.472
7.344
7.496
7.612
7.508
7.36
7.444
7.584
7.452
7.324
7.388
7.56
7.472
7.352
7.392
7.604
7.532
7.368
7.344
7.5
7.476
7.244
7.176
7.46
7.876
8.192
8.696
9.512
10.008
9.712
9.02
8.584
8.228
7.576
7.236
7.3
7.6
7.616
7.512
7.544
7.764
7.724
7.576
7.492
7.692
7.724
7.62
7.504
7.692
7.784
7.664
7.548
7.676
7.844
7.724
7.584
7.684
7.856
7.772
7.616
7.68
7.868
7.816
7.676
7.688
7.884
7.892
7.764
7.716
7.912
7.952
7.828
7.748
7.932
8.068
7.908
7.808
7.976
8.144
8.028
7.916
8.044
8.224
8.192
8.068
8.164
8.372
8.356
8.256
8.308
8.5
8.54
8.428
8.42
8.644
8.712
8.592
8.484
8.664
8.764
8.632
8.48
8.572
8.664
8.452
8.272
8.292
8.38
8.22
8.004
8.004
8.168
8.024
7.848
7.816
8
7.968
7.784
7.728
7.924
7.944
7.788
7.696
7.856
7.96
7.8
7.684
7.832
7.948
