8.044
8.076
7.988
7.968
8.06
8.084
8.004
7.948
8.044
8.096
8.04
7.928
8.016
8.088
8.056
7.952
8.036
8.084
8.056
7.948
7.992
8.076
8.076
7.96
7.98
8.076
8.108
7.956
7.956
8.044
8.084
7.948
7.916
8.02
8.06
8.012
7.932
8.008
8.1
8.048
7.94
8.004
8.072
8.036
7.9
7.96
8.096
8.076
7.916
7.972
8.056
8.08
7.952
7.912
8.024
8.092
8.008
7.932
8.024
8.088
8.012
7.932
8.004
8.108
8.052
7.896
7.984
8.08
8.088
7.932
7.96
8.068
8.096
7.936
7.924
8.036
8.06
7.948
7.932
8.048
8.076
8.004
7.944
8.024
8.116
8.028
7.972
8.048
8.2
8.172
8.088
8.136
8.256
8.248
8.124
8.164
8.28
8.292
8.144
8.152
8.224
8.252
8.116
8.02
8.068
8.128
8.008
7.936
8.024
8.096
8.056
7.92
7.98
8.072
8.052
7.884
7.984
8.064
8.044
7.884
7.884
7.976
7.928
7.864
8.384
9.34
10.324
10.924
10.512
10.072
9.736
9.208
8.64
8.364
8.336
8.228
8.144
8.212
8.232
8.172
8.028
8.076
8.172
8.108
7.976
8.012
8.136
8.116
8.008
7.992
8.1
8.1
8.032
8.008
8.104
8.152
8.06
7.98
8.076
8.16
8.104
7.968
8.06
8.164
8.156
7.992
8.056
8.172
8.132
8.02
8.064
8.164
8.172
8.06
8.064
8.204
8.204
8.116
8.084
8.188
8.26
8.192
8.116
8.24
8.316
8.288
8.184
8.276
8.396
8.372
8.284
8.36
8.48
8.48
8.372
8.448
8.58
8.584
8.468
8.532
8.648
8.72
8.648
8.616
8.744
8.792
8.704
8.592
8.64
8.68
8.588
8.432
8.448
8.488
8.388
8.192
8.24
8.308
8.264
8.08
8.088
8.188
8.188
8.032
8.012
8.116
8.164
8.068
7.992
8.08
8.128
8.064
7.964
8.032
8.14
8.084
7.948
8.032
8.148
8.124
7.944
8.02
8.124
8.104
7.948
7.988
8.096
8.124
7.98
7.976
8.088
8.088
7.988
7.948
8.052
8.124
8.016
7.936
8.036
8.132
8.06
7.928
7.992
8.12
8.088
7.936
8
8.1
8.072
7.936
7.956
8.088
8.092
7.956
7.94
8.048
8.088
7.98
7.924
8.02
8.1
8.02
7.916
7.984
8.104
7.996
7.896
7.98
8.08
8.036
7.904
7.952
8.08
8.048
7.916
7.936
8.036
8.076
7.92
7.912
8.036
8.064
7.96
7.912
8.008
8.092
8
7.916
7.984
8.06
8.028
7.896
8
8.108
8.068
7.924
7.984
8.092
8.096
7.944
7.944
8.06
8.08
7.98
7.94
8.052
8.084
7.972
7.932
8.016
8.1
8.036
7.904
8.004
8.1
8.056
7.912
8.004
8.092
8.056
7.952
7.984
8.16
8.112
8.036
8.08
8.208
8.236
8.184
8.148
8.236
8.288
8.2
8.132
8.224
8.28
8.212
8.076
8.132
8.156
8.076
7.912
7.992
8.068
8.04
7.92
7.984
8.084
8.024
7.92
7.928
8.076
8.08
7.956
7.92
8.008
7.968
7.916
7.788
7.968
8.592
9.34
10.12
10.76
10.384
9.848
9.416
9.092
8.772
8.38
8.128
8.172
8.256
8.208
8.06
8.04
8.128
8.132
8.04
7.988
8.088
8.12
8.044
7.952
8.052
8.128
8.068
7.952
8.056
8.16
8.104
7.932
8.004
8.136
8.12
8
8.016
8.14
8.152
8.044
8.04
8.14
8.176
8.064
8.008
8.132
8.184
8.104
8.004
8.132
8.26
8.196
8.088
8.164
8.272
8.232
8.088
8.156
8.276
8.284
8.176
8.212
8.352
8.356
8.24
8.284
8.416
8.5
8.396
8.368
8.496
8.576
8.528
8.464
8.608
8.712
8.692
8.604
8.7
8.8
8.772
8.632
8.692
8.756
8.668
8.508
8.5
8.584
8.496
8.364
8.304
8.336
8.336
8.22
8.128
8.188
8.224
8.136
8.012
8.108
8.176
8.104
7.988
8.08
8.16
8.096
7.964
8.032
8.148
8.096
8
8.004
8.1
8.1
7.98
8.008
8.1
8.136
8.016
7.936
8.048
8.132
8.044
7.956
8.04
8.144
8.072
7.924
8.04
8.1
8.096
7.944
8.008
8.104
8.064
7.956
8.028
8.132
8.092
7.972
7.972
8.092
8.1
7.976
7.916
8.016
8.12
8.02
7.912
8.012
8.076
8.024
7.948
8.012
8.104
8.076
7.92
7.96
8.036
8.064
7.956
7.996
8.08
8.048
7.948
7.924
8.032
8.072
7.984
7.912
8.028
8.092
7.992
7.904
8.04
8.08
8.024
7.9
7.992
8.076
8.076
7.9
7.944
8.08
8.036
7.916
7.94
8.064
8.088
7.964
7.984
8.072
8.08
7.996
7.888
8
8.108
8.052
7.944
8.032
8.124
8.084
7.968
8.06
8.16
8.148
8.064
8.116
8.26
8.248
8.12
8.156
8.292
8.264
8.164
8.152
8.256
8.28
8.176
8.068
8.092
8.136
8.056
7.936
8.02
8.088
7.984
7.824
7.956
8.108
8.048
7.936
7.968
8.088
8.064
7.916
7.904
7.964
7.948
7.82
8.188
9.06
10.032
10.864
10.836
10.296
9.948
9.468
8.832
8.492
8.236
8.108
8.044
8.156
8.28
8.204
8.048
8.088
8.156
8.108
7.972
7.996
8.128
8.092
8.032
8.016
8.1
8.12
8.028
7.952
8.116
8.184
8.092
7.968
8.068
8.188
8.096
7.952
8.044
8.196
8.148
8.032
8.04
8.12
8.156
8.072
8.084
8.212
8.224
8.116
8.064
8.192
8.204
8.152
8.064
8.228
8.344
8.212
8.092
8.204
8.384
8.376
8.272
8.296
8.384
8.368
8.22
8.3
8.516
8.564
8.436
8.46
8.62
8.64
8.596
8.616
8.768
8.824
8.736
8.628
8.768
8.796
8.724
8.556
8.608
8.672
8.528
8.324
8.3
8.372
8.324
8.22
8.24
8.216
8.128
8.004
8.032
8.136
8.06
7.944
7.92
8.028
8.036
7.968
7.928
8.068
8.076
7.936
7.836
7.972
8.1
7.968
7.868
7.928
8.052
8.024
7.876
7.92
8.044
8.044
7.94
7.916
8.004
8.06
7.92
7.912
8.004
8.06
8
7.872
7.948
8.08
8.012
7.808
7.936
8.056
8.028
7.876
7.916
8.064
8.036
7.876
7.896
8.032
8.012
7.88
7.9
8.036
8.028
7.936
7.864
7.924
8.016
8.032
7.884
7.968
8.052
7.992
7.864
7.936
7.976
7.86
7.8
7.916
8.04
7.976
7.86
7.916
7.992
7.996
7.916
7.864
7.968
7.956
7.872
7.804
7.944
8.048
8
7.812
7.936
8.004
7.848
7.844
8.02
8.1
7.988
7.84
7.948
8.08
8.072
7.94
8.04
8.132
8.152
8.108
8.116
8.204
8.208
8.08
8
8.188
8.252
8.116
7.996
8.048
8.048
7.984
7.884
7.956
8.068
7.944
7.748
7.86
8.024
7.928
7.784
7.864
8.028
8.012
7.824
7.764
7.904
7.888
7.86
7.776
8.156
8.988
9.976
10.892
11.236
10.512
9.68
9.072
8.684
8.428
8.072
7.832
7.988
8.224
8.24
8.016
7.94
8.068
8.036
7.948
7.912
8.044
8.096
8.048
7.9
7.976
8.068
8.028
7.912
8.012
8.116
8.008
7.912
7.996
8.08
8.076
7.948
8.008
8.124
8.128
7.984
8
8.148
8.14
8.068
8.072
8.228
8.196
8.016
8.008
8.208
8.268
8.176
8.036
8.184
8.264
8.176
8.132
8.248
8.368
8.348
8.236
8.292
8.356
8.368
8.3
8.376
8.488
8.5
8.464
8.46
8.616
8.744
8.708
8.64
8.7
8.792
8.808
8.736
8.792
8.88
8.784
8.588
8.636
8.728
8.6
8.5
8.488
8.496
8.34
8.156
8.172
8.264
8.18
8.076
8.032
8.12
8.152
8.04
7.912
8.004
8.088
8.008
7.88
7.984
8.036
8.008
7.888
7.96
8.06
8.036
7.944
7.932
8.056
8.036
7.92
7.96
8.104
8.096
7.972
7.928
7.996
8.076
8.02
7.924
8.024
8.108
7.996
7.904
8.02
8.084
8.008
7.924
7.972
8.092
8.048
7.964
7.972
8.064
8.048
7.956
7.928
8.02
8.024
7.956
7.912
8.032
8.096
7.988
7.884
7.98
8.06
8.008
7.864
7.96
8.016
7.98
7.872
7.972
8.056
7.976
7.904
7.964
8.06
8.028
7.884
7.884
8.004
8.016
7.948
7.88
8.016
8.048
7.964
7.876
7.968
8.036
7.968
7.872
7.912
8.036
7.976
7.888
7.992
8.08
8.016
7.9
7.936
8.008
8.012
7.952
7.94
8.056
8.084
8.064
7.984
8.124
8.204
8.164
8.068
8.184
8.276
8.148
8.068
8.152
8.236
8.164
8.092
8.12
8.176
8.06
7.928
7.948
8.012
8.012
7.912
7.908
8.004
8
7.928
7.872
7.972
7.996
7.9
7.8
7.924
8.008
7.888
7.772
7.848
8.2
8.804
9.68
10.732
11.296
10.552
9.8
9.292
8.86
8.408
8.028
7.976
8.136
8.164
8.088
7.968
8.072
8.116
8.036
7.924
7.996
8.06
8.028
7.936
7.988
8.092
8.02
7.916
7.976
8.076
8.024
7.972
7.98
8.072
8.076
7.992
7.968
8.068
8.096
8.024
7.948
8.048
8.12
8.088
7.98
8.092
8.168
8.088
8.04
8.116
8.212
8.128
8.04
8.132
8.268
8.192
8.148
8.14
8.284
8.272
8.2
8.204
8.336
8.36
8.308
8.264
8.392
8.492
8.468
8.376
8.504
8.608
8.6
8.508
8.604
8.756
8.696
8.616
8.696
8.836
8.816
8.732
8.708
8.752
8.7
8.596
8.46
8.524
8.452
8.348
8.22
8.292
8.288
8.168
8.044
8.12
8.16
8.076
7.964
8
8.076
8.028
7.944
7.972
8.064
8.028
7.948
7.904
8.004
8.024
7.976
7.92
8.012
8.076
8
7.928
8.008
8.048
7.992
7.892
7.984
8.064
7.992
7.92
8
8.064
8
7.912
7.984
8.08
8.028
7.944
7.948
8.068
8.064
7.968
7.924
8.024
8.044
7.956
7.876
7.984
8.02
7.96
7.892
8
8.06
7.968
7.848
7.92
8.048
8.008
7.884
7.908
8.028
7.988
7.936
7.936
8.016
7.96
7.904
7.876
7.996
8.032
7.952
7.84
7.956
8.016
7.952
7.852
7.96
8.068
7.984
7.864
7.952
8.004
7.972
7.904
7.912
8.024
7.96
7.908
7.888
8.008
7.98
7.92
7.872
7.98
8.008
7.928
7.872
7.964
8.064
7.992
7.876
7.932
7.996
7.952
7.864
7.912
8.016
7.952
7.888
7.916
8.024
7.992
7.932
7.916
8.1
8.136
8.052
7.992
8.116
8.188
8.156
8.052
8.152
8.228
8.16
8.06
8.12
8.188
8.148
8.024
8.036
8.06
7.98
7.848
7.864
7.984
7.984
7.916
7.836
7.96
7.964
7.912
7.86
7.968
8.004
7.928
7.812
7.82
7.904
7.792
7.908
8.6
9.636
10.56
11.08
10.516
10
9.516
8.916
8.432
8.164
8.088
8.06
8.064
8.156
8.14
8.04
7.984
8.04
8.028
7.98
7.904
7.988
8.028
8.004
7.9
8.008
8.072
8.036
7.928
7.972
8.06
8.044
7.948
7.98
8.088
8.072
7.996
7.956
8.076
8.096
8.012
7.964
8.08
8.128
8.08
7.984
8.084
8.136
8.104
8.064
8.128
8.188
8.132
8.064
8.104
8.232
8.188
8.18
8.176
8.3
8.276
8.252
8.236
8.348
8.396
8.356
8.32
8.44
8.484
8.456
8.456
8.568
8.636
8.584
8.536
8.644
8.732
8.708
8.656
8.704
8.804
8.756
8.664
8.616
8.66
8.6
8.488
8.424
8.46
8.404
8.264
8.148
8.212
8.232
8.14
8.056
8.116
8.12
8.064
7.976
8.028
8.1
8.072
7.988
8.012
8.092
8.032
7.98
7.992
8.056
8.032
7.988
7.992
8.048
8.04
7.996
7.968
8.068
8.084
8.028
8
8.04
8.092
8.016
7.968
8.028
8.064
8.04
7.996
8.004
8.056
8.012
7.96
7.98
8.04
8.04
7.988
7.96
8.036
8.044
8.008
7.976
8.008
8.032
7.968
7.952
8.032
8.036
7.98
7.956
7.968
8.02
7.976
7.956
7.968
8.016
7.98
7.968
7.936
8.012
8
7.988
7.984
8.032
8
7.968
7.956
8.024
8.04
7.964
7.96
7.996
7.992
7.976
7.98
8.004
8.016
8
8
8.004
8.068
8.008
7.948
7.94
8.02
7.988
7.988
7.98
8.048
8.028
7.992
7.968
8.02
8.012
7.988
7.98
8.004
8.02
8
7.988
7.984
8.02
7.976
7.976
7.988
8.008
7.968
7.964
7.972
8.04
8
7.956
8
8.068
8.096
8.076
8.088
8.14
8.164
8.156
8.168
8.216
8.216
8.188
8.184
8.228
8.244
8.184
8.132
8.18
8.192
8.04
8.012
8.016
8.048
8.024
7.992
8
8.008
7.992
7.956
7.936
8
7.992
7.952
7.952
7.996
7.94
7.864
7.836
7.892
8.364
9.084
10.056
10.948
10.868
10.188
9.728
9.272
8.832
8.388
8.188
8.196
8.24
8.228
8.144
8.116
8.116
8.1
8.044
8.044
8.056
8.092
8.044
8.052
8.068
8.08
8.052
8.056
8.068
8.104
8.072
8.036
8.048
8.12
8.1
8.056
8.088
8.1
8.116
8.1
8.088
8.164
8.148
8.108
8.108
8.16
8.152
8.108
8.124
8.144
8.192
8.132
8.136
8.184
8.244
8.22
8.196
8.188
8.276
8.216
8.228
8.22
8.328
8.32
8.284
8.332
8.428
8.412
8.392
8.44
8.48
8.528
8.5
8.52
8.596
8.664
8.624
8.652
8.696
8.728
8.716
8.692
8.7
8.696
8.62
8.58
8.54
8.536
8.464
8.376
8.308
8.32
8.284
8.212
8.168
8.188
8.188
8.124
8.072
8.084
8.116
8.072
8.056
8.064
8.112
8.096
8.056
8.08
8.136
8.084
8.044
8.04
8.088
8.08
8.032
8.048
8.108
8.092
8.052
8.044
8.072
8.084
8.028
8.068
8.064
8.092
8.024
8.024
8.064
8.108
8.064
8.044
8.052
8.1
8.056
8.048
8.044
8.072
8.028
8.004
8.02
8.036
8.068
8.012
8.012
8.048
8.068
8.032
8.016
8.02
8.084
8.028
8
8.04
8.068
8.028
7.976
8.04
8.088
8.052
8.032
8.016
8.072
8.064
8.036
8.02
8.04
8.084
8.04
8.044
8.052
8.036
8.02
8.004
8.016
8.048
8
8.028
8.032
8.056
8.02
8.012
8.024
8.072
8.028
8.02
8.028
8.044
8.036
8.008
8.008
8.056
8.056
8.036
8.048
8.068
8.088
8.016
8.02
8.072
8.076
8
8.016
8.048
8.092
8.036
7.992
8.008
8.088
8.104
8.068
8.096
8.18
8.188
8.188
8.196
8.232
8.248
8.224
8.216
8.268
8.288
8.2
8.188
8.22
8.256
8.156
8.076
8.08
8.1
8.06
8.028
8.02
8.08
8.04
8.016
8.028
8.076
8.048
8.016
8.016
8.028
8.044
7.936
7.908
7.924
7.976
8.452
9.208
10.172
10.992
10.64
10.052
9.712
9.3
8.808
8.388
8.232
8.3
8.276
8.208
8.196
8.2
8.168
8.096
8.096
8.152
8.144
8.1
8.104
8.116
8.132
8.088
8.096
8.104
8.156
8.06
8.064
8.12
8.164
8.112
8.084
8.128
8.128
8.128
8.088
8.116
8.152
8.136
8.1
8.148
8.184
8.172
8.136
8.152
8.192
8.216
8.148
8.148
8.204
8.252
8.204
8.208
8.24
8.288
8.252
8.268
8.284
8.348
8.332
8.34
8.376
8.44
8.42
8.392
8.452
8.512
8.544
8.504
8.56
8.576
8.636
8.644
8.668
8.708
8.744
8.728
8.716
8.76
8.748
8.684
8.632
8.628
8.604
8.524
8.436
8.412
8.42
8.356
8.256
8.232
8.232
8.204
8.148
8.156
8.148
8.16
8.08
8.088
8.116
8.14
8.072
8.088
8.108
8.116
8.064
8.072
8.088
8.116
8.084
8.08
8.092
8.132
8.112
8.068
8.088
8.112
8.116
8.06
8.088
8.14
8.12
8.076
8.072
8.104
8.128
8.056
8.052
8.052
8.08
8.056
8.056
8.032
8.072
8.06
8.008
8.068
8.092
8.052
7.988
8.052
8.088
8.068
7.992
8.06
8.068
8.092
8.004
8.048
8.06
8.064
8.064
8.064
8.052
8.088
8.064
8.016
8.04
8.076
8.04
8.008
8.044
8.076
8.06
7.976
8.02
8.068
8.072
8.02
8.044
8.04
8.052
8.024
8.064
8.044
8.064
8.032
8.048
8.06
8.072
8.02
8.032
8.052
8.108
8.072
8.04
8.064
8.08
8.036
8.016
8.06
8.056
8.048
7.992
8.052
8.044
8.06
8
8.056
8.056
8.092
8.02
8.052
8.048
8.072
8.056
8.016
8.04
8.076
8.04
8.064
8.104
8.14
8.132
8.112
8.176
8.224
8.216
8.204
8.236
8.256
8.276
8.244
8.248
8.264
8.256
8.188
8.22
8.176
8.156
8.076
8.072
8.08
8.068
8.04
8
8.044
8.06
8.028
7.968
8.028
8.06
8.044
8.004
7.988
7.968
7.96
7.88
7.888
8.344
9.096
9.968
10.872
10.752
10.144
9.712
9.328
8.856
8.5
8.288
8.236
8.264
8.264
8.212
8.124
8.168
8.148
8.108
8.064
8.104
8.096
8.1
8.056
8.12
8.108
8.152
8.076
8.08
8.1
8.128
8.084
8.072
8.108
8.152
8.124
8.096
8.14
8.148
8.128
8.096
8.132
8.184
8.152
8.108
8.156
8.196
8.208
8.168
8.18
8.172
8.228
8.192
8.18
8.208
8.256
8.228
8.216
8.256
8.3
8.256
8.252
8.344
8.36
8.364
8.336
8.392
8.452
8.452
8.436
8.52
8.508
8.552
8.528
8.6
8.592
8.668
8.632
8.664
8.716
8.76
8.708
8.684
8.704
8.704
8.624
8.536
8.536
8.512
8.436
8.36
8.364
8.304
8.268
8.172
8.212
8.216
8.196
8.12
8.148
8.136
8.136
8.092
8.088
8.112
8.14
8.104
8.064
8.1
8.108
8.116
8.072
8.092
8.112
8.1
8.064
8.128
8.124
8.088
8.036
8.108
8.104
8.116
8.032
8.092
8.076
8.1
8.032
8.048
8.084
8.076
8.056
8.04
8.056
8.084
8.044
8
8.044
8.1
8.048
8.012
8.064
8.072
8.072
8
8.04
8.048
8.06
8.012
8.024
8.012
8.052
8.032
8.012
8.036
8.056
8.02
7.984
8.056
8.044
8.036
7.98
8.048
8.048
8.052
8.024
8.036
8.036
8.044
8
8.04
8.024
8.064
7.988
8.02
8.008
8.052
7.972
7.968
8.028
8.056
7.996
7.972
8.02
8.02
8.008
7.968
8.028
8.052
8.004
7.984
8.048
8.044
8.028
7.984
8.028
8.02
8.064
7.988
8.024
8.04
8.052
8
7.992
8.008
8.044
8
7.968
8.028
8.064
8.004
7.996
8.06
8.048
8.032
7.968
8.02
8.032
8.04
7.992
8.024
8.048
8.108
8.08
8.104
8.132
8.184
8.164
8.196
8.236
8.248
8.204
8.184
8.248
8.256
8.224
8.136
8.212
8.192
8.14
8.036
8.052
8.052
8.048
7.992
8.032
8.008
7.992
7.968
7.992
8.012
8.02
7.96
7.968
8.012
8.008
7.916
7.844
7.872
7.968
8.448
9.24
10.224
10.872
10.392
9.856
9.608
9.168
8.692
8.284
8.22
8.232
8.224
8.18
8.14
8.136
8.104
8.044
8.02
8.072
8.064
8.044
8.024
8.056
8.068
8.056
8.008
8.072
8.056
8.068
8.016
8.076
8.06
8.076
8.024
8.06
8.052
8.092
8.044
8.04
8.092
8.1
8.076
8.08
8.116
8.108
8.08
8.072
8.16
8.128
8.124
8.092
8.16
8.188
8.176
8.112
8.192
8.22
8.2
8.188
8.224
8.228
8.276
8.232
8.236
8.332
8.344
8.324
8.332
8.428
8.468
8.432
8.448
8.488
8.568
8.56
8.556
8.636
8.652
8.668
8.616
8.676
8.668
8.636
8.54
8.544
8.536
8.484
8.376
8.336
8.34
8.3
8.22
8.168
8.168
8.18
8.136
8.064
8.1
8.096
8.044
8.008
8.1
8.08
8.064
7.988
8.044
8.08
8.068
7.992
8.012
8.02
8.068
8.016
8.024
8.032
8.064
8.028
7.98
8.056
8.052
8.028
7.988
8.072
8.06
8.008
7.984
8.044
8.044
8
7.952
8.024
8
8.016
7.988
7.996
8.004
8.008
7.968
7.992
8.036
8.016
7.96
7.96
8.036
8.028
7.972
7.944
8.004
8.008
7.984
7.94
8.008
8.004
8
7.972
7.996
8.004
8.004
7.972
7.996
8.008
8.004
7.956
7.952
8.04
8.036
7.968
7.944
8
8.028
7.976
7.948
8.004
8.008
8
7.968
7.992
7.972
7.996
7.964
8
8.008
8.004
7.936
7.968
8.016
7.996
7.956
7.944
7.976
7.96
7.96
7.968
7.996
7.996
7.968
7.944
8.012
7.992
7.996
7.94
7.988
8.024
7.988
7.928
7.968
7.968
7.996
7.948
7.964
7.952
7.98
7.924
7.948
7.996
8
7.992
8.02
8.08
8.112
8.084
8.044
8.168
8.196
8.188
8.112
8.196
8.2
8.2
8.16
8.148
8.18
8.152
8.068
8.016
8.028
8.028
7.964
7.952
7.996
7.996
7.972
7.928
7.984
7.988
7.952
7.92
7.984
7.976
7.952
7.864
7.872
7.872
7.8
8.152
8.928
9.836
10.652
10.524
9.944
9.652
9.32
8.78
8.372
8.232
8.208
8.18
8.108
8.168
8.136
8.048
7.988
8.072
8.04
8.02
8.004
8.064
8.036
8.028
7.984
8.028
8.032
8.036
7.98
8
8.044
8.052
8
8.004
8.06
8.04
8.04
8.012
8.084
8.088
8.04
7.996
8.092
8.084
8.092
8.02
8.104
8.092
8.124
8.064
8.084
8.14
8.124
8.1
8.128
8.172
8.168
8.124
8.136
8.228
8.236
8.212
8.192
8.296
8.316
8.3
8.26
8.364
8.38
8.38
8.384
8.46
8.48
8.484
8.48
8.544
8.612
8.62
8.568
8.6
8.648
8.636
8.576
8.528
8.528
8.512
8.428
8.348
8.36
8.328
8.272
8.184
8.228
8.192
8.128
8.068
8.128
8.1
8.072
8.016
8.028
8.048
8.056
7.988
7.992
8.04
8.044
7.976
7.992
8.06
8.06
8.008
7.976
8.068
8.052
8.024
7.988
8.048
8.064
8.028
7.984
8.02
8.036
8.044
7.988
8
8.032
8.032
7.984
8.004
8.056
8.044
7.972
7.988
8.072
8.044
7.988
7.968
8.056
8.064
7.996
7.968
8.008
8.028
8
7.956
8.032
8.02
8.016
7.964
8.02
8.056
8.04
7.964
7.976
8.04
8.032
7.968
7.956
8.024
8.012
8.004
7.98
8.064
8.032
7.996
7.992
8.044
8.036
7.992
7.964
8.02
8.056
8.04
7.976
8.004
8.06
8.04
7.984
7.988
8.02
8.012
8
7.976
8.056
8.036
7.992
7.976
8.06
8.04
8.004
7.956
8.056
8.064
8.02
7.988
8.016
8.044
8.044
7.984
8.004
8.04
8.052
7.988
8.004
8.016
8.008
7.976
7.992
8.084
8.116
8.08
8.04
8.156
8.2
8.16
8.152
8.252
8.248
8.22
8.172
8.232
8.244
8.216
8.152
8.172
8.208
8.136
8.016
8
8.076
8.048
7.976
7.944
8.06
8.032
7.964
7.944
8.044
8.024
7.992
7.964
8.028
8.012
7.932
7.848
7.86
8.016
8.572
9.36
10.204
10.872
10.4
9.86
9.592
9.252
8.816
8.384
8.156
8.264
8.248
8.188
8.144
8.164
8.148
8.096
8.04
8.116
8.112
8.08
8.04
8.092
8.148
8.108
8.072
8.06
8.112
8.104
8.076
8.068
8.116
8.128
8.068
8.052
8.148
8.156
8.12
8.068
8.192
8.164
8.116
8.084
8.148
8.164
8.152
8.092
8.16
8.196
8.18
8.16
8.176
8.216
8.216
8.188
8.18
8.252
8.244
8.232
8.224
8.336
8.324
8.308
8.276
8.388
8.396
8.408
8.388
8.448
8.496
8.5
8.496
8.572
8.628
8.628
8.604
8.636
8.72
8.724
8.696
8.688
8.736
8.692
8.612
8.54
8.596
8.528
8.424
8.328
8.368
8.328
8.284
8.224
8.252
8.244
8.18
8.104
8.132
8.18
8.156
8.092
8.08
8.144
8.136
8.08
8.044
8.136
8.132
8.064
8.048
8.12
8.12
8.08
8.048
8.132
8.128
8.104
8.04
8.116
8.116
8.1
8.052
8.08
8.124
8.112
8.06
8.064
8.132
8.092
8.028
8.036
8.112
8.104
8.036
7.988
8.06
8.116
8.052
8.024
8.112
8.12
8.08
8.016
8.068
8.088
8.072
8.02
8.048
8.104
8.084
8.036
8.024
8.096
8.08
8.02
8.008
8.108
8.108
8.036
7.988
8.116
8.1
8.064
8.02
8.072
8.096
8.068
8.008
8.104
8.12
8.06
8.024
8.064
8.128
8.084
8.024
8.016
8.124
8.108
8.048
8.024
8.08
8.104
8.068
8.036
8.104
8.108
8.072
8.012
8.104
8.12
8.08
8.024
8.08
8.124
8.068
8.032
8.048
8.104
8.104
8.068
8.044
8.12
8.096
8.048
8.048
8.12
8.1
8.06
8.028
8.132
8.136
8.08
8.068
8.136
8.196
8.168
8.152
8.2
8.268
8.284
8.248
8.252
8.316
8.3
8.236
8.248
8.32
8.272
8.196
8.168
8.232
8.156
8.068
8.016
8.064
8.116
8.076
8.02
8.056
8.092
8.056
8
8.06
8.076
8.064
8.016
7.996
8.016
7.976
7.848
8.148
8.88
9.784
10.588
10.788
10.272
9.868
9.5
8.98
8.612
8.344
8.248
8.232
8.272
8.296
8.196
8.116
8.112
8.176
8.132
8.076
8.072
8.156
8.132
8.116
8.06
8.132
8.132
8.096
8.088
8.152
8.164
8.116
8.056
8.156
8.18
8.136
8.096
8.144
8.18
8.172
8.128
8.116
8.204
8.204
8.16
8.136
8.22
8.216
8.16
8.188
8.256
8.252
8.204
8.208
8.272
8.292
8.248
8.232
8.292
8.34
8.316
8.268
8.332
8.392
8.376
8.372
8.412
8.484
8.476
8.46
8.492
8.612
8.576
8.56
8.576
8.696
8.708
8.708
8.672
8.74
8.784
8.74
8.664
8.696
8.672
8.588
8.512
8.528
8.524
8.432
8.348
8.312
8.332
8.288
8.2
8.18
8.224
8.192
8.156
8.104
8.192
8.172
8.112
8.084
8.152
8.172
8.116
8.068
8.148
8.164
8.132
8.08
8.12
8.176
8.124
8.076
8.096
8.144
8.128
8.108
8.092
8.16
8.12
8.084
8.076
8.14
8.14
8.084
8.064
8.132
8.144
8.084
8.06
8.08
8.104
8.084
8.052
8.076
8.104
8.104
8.052
8.064
8.12
8.088
8.048
8.044
8.108
8.112
8.072
8.052
8.1
8.124
8.052
8.04
8.1
8.108
8.064
8.02
8.096
8.124
8.08
8.032
8.064
8.132
8.096
8.052
8.052
8.112
8.1
8.028
8.016
8.104
8.108
8.064
8.044
8.084
8.104
8.076
8.048
8.092
8.116
8.048
8.04
8.068
8.108
8.076
8.036
8.044
8.128
8.084
8.024
8.072
8.108
8.104
8.044
8.04
8.1
8.088
8.048
8.052
8.108
8.1
8.032
8.028
8.104
8.132
8.056
8.04
8.088
8.128
8.088
8.048
8.072
8.124
8.096
8.064
8.06
8.152
8.16
8.104
8.16
8.236
8.252
8.228
8.24
8.316
8.324
8.256
8.26
8.264
8.32
8.26
8.208
8.232
8.26
8.172
8.084
8.112
8.144
8.124
8.036
8.036
8.112
8.096
8.036
8.032
8.092
8.092
8.052
8.024
8.048
8.048
7.944
7.908
7.92
8.312
8.944
9.784
10.692
10.744
10.1
9.752
9.444
9.024
8.58
8.268
8.228
8.304
8.324
8.228
8.148
8.224
8.188
8.124
8.104
8.152
8.164
8.1
8.1
8.16
8.172
8.14
8.1
8.136
8.164
8.16
8.108
8.116
8.18
8.176
8.128
8.128
8.2
8.164
8.152
8.156
8.2
8.18
8.144
8.152
8.208
8.244
8.168
8.148
8.192
8.24
8.2
8.18
8.228
8.284
8.256
8.232
8.244
8.328
8.284
8.28
8.304
8.36
8.364
8.348
8.344
8.44
8.472
8.436
8.436
8.532
8.552
8.552
8.54
8.624
8.652
8.656
8.632
8.72
8.752
8.748
8.708
8.696
8.772
8.72
8.628
8.588
8.596
8.524
8.44
8.376
8.404
8.364
8.3
8.228
8.288
8.244
8.192
8.136
8.204
8.2
8.14
8.108
8.156
8.168
8.136
8.1
8.116
8.176
8.172
8.108
8.1
8.18
8.152
8.108
8.1
8.148
8.164
8.116
8.092
8.176
8.144
8.076
8.072
8.12
8.184
8.12
8.076
8.104
8.14
8.124
8.096
8.1
8.16
8.104
8.072
8.092
8.152
8.116
8.052
8.068
8.144
8.12
8.084
8.072
8.116
8.116
8.08
8.056
8.104
8.136
8.072
8.04
8.076
8.116
8.084
8.048
8.048
8.14
8.088
8.008
8.06
8.112
8.108
8.06
8.036
8.1
8.096
8.048
8.024
8.088
8.092
8.056
8.04
8.108
8.108
8.08
8.06
8.06
8.096
8.08
8.028
8.048
8.12
8.076
8.068
8.064
8.088
8.08
8.052
8.036
8.104
8.112
8.044
8.048
8.116
8.088
8.048
8.028
8.096
8.104
8.06
8.028
8.088
8.12
8.092
8.044
8.06
8.128
8.06
8.056
8.056
8.12
8.096
8.024
8.016
8.14
8.164
8.096
8.1
8.196
8.232
8.212
8.196
8.252
8.304
8.272
8.232
8.26
8.308
8.24
8.204
8.2
8.248
8.16
8.056
8.036
8.12
8.076
8.02
7.996
8.068
8.068
8.012
8.004
8.032
8.064
8.02
7.996
8.032
8.024
7.904
7.86
7.864
8.248
8.908
9.696
10.564
10.74
10.132
9.704
9.46
9.004
8.604
8.252
8.192
8.272
8.268
8.208
8.144
8.168
8.156
8.084
8.048
8.108
8.144
8.1
8.048
8.092
8.136
8.096
8.04
8.076
8.152
8.112
8.068
8.052
8.112
8.12
8.08
8.084
8.148
8.148
8.096
8.092
8.164
8.192
8.096
8.068
8.124
8.188
8.16
8.132
8.172
8.2
8.172
8.16
8.204
8.236
8.228
8.2
8.2
8.276
8.268
8.216
8.232
8.336
8.352
8.312
8.28
8.384
8.424
8.396
8.396
8.464
8.54
8.5
8.496
8.54
8.616
8.636
8.612
8.648
8.74
8.684
8.628
8.636
8.704
8.672
8.548
8.484
8.524
8.48
8.388
8.32
8.324
8.324
8.228
8.168
8.176
8.208
8.14
8.096
8.096
8.136
8.124
8.056
8.072
8.14
8.108
8.044
8.036
8.12
8.088
8.044
8.06
8.104
8.108
8.032
8.028
8.084
8.132
8.044
8.028
8.08
8.136
8.068
8.008
8.056
8.12
8.084
8.04
8.044
8.116
8.052
8.012
8.032
8.084
8.096
8.02
8.016
8.06
8.076
8.032
7.988
8.064
8.084
8.028
7.988
8.024
8.06
8.032
8.016
8.016
8.064
8.016
7.992
8.008
8.068
8.028
7.988
7.976
8.052
8.044
7.988
7.992
8.052
8.052
8.016
7.992
8.036
8.064
8.024
7.98
8.02
8.072
8.008
7.964
7.992
8.072
8.032
7.984
8
8.056
8.048
8.016
7.98
8.064
8.028
8.004
8.008
8.056
8.084
8.012
7.988
8.06
8.072
8.016
7.972
8.04
8.068
8.052
8
8.016
8.076
8.044
8.008
8.016
8.084
8.052
8.004
8.012
8.044
8.04
8.008
7.996
8.048
8.064
8.044
8.04
8.132
8.172
8.14
8.14
8.22
8.264
8.236
8.2
8.22
8.288
8.232
8.192
8.18
8.228
8.208
8.124
8.036
8.088
8.072
8.012
7.96
8.04
8.06
8
7.968
8.016
8.044
8
7.944
7.992
8.048
7.98
7.884
7.884
7.868
7.98
8.5
9.344
10.304
10.896
10.34
9.872
9.644
9.176
8.704
8.336
8.22
8.24
8.188
8.168
8.168
8.176
8.088
8.016
8.088
8.116
8.052
8.016
8.052
8.092
8.076
8.028
8.04
8.088
8.064
8.016
8.032
8.084
8.06
8.016
8.008
8.1
8.14
8.072
8.04
8.112
8.16
8.104
8.076
8.096
8.144
8.128
8.084
8.116
8.176
8.136
8.092
8.14
8.224
8.196
8.148
8.144
8.188
8.216
8.184
8.192
8.244
8.284
8.256
8.26
8.292
8.368
8.34
8.352
8.408
8.444
8.424
8.42
8.492
8.58
8.536
8.54
8.576
8.664
8.66
8.6
8.616
8.664
8.644
8.56
8.54
8.524
8.508
8.408
8.332
8.332
8.324
8.216
8.152
8.176
8.212
8.14
8.064
8.06
8.096
8.084
8.008
7.984
8.06
8.048
8.024
7.992
8.076
8.044
7.984
7.988
8.04
8.04
7.988
7.964
8.008
8.064
8.012
7.964
7.968
8.056
8
7.948
7.988
8.036
7.992
7.98
7.984
8.04
8.016
7.972
7.984
8.02
8.048
7.964
7.948
8.004
8.02
7.964
7.94
8
8.032
7.996
7.96
7.98
8.028
7.992
7.9
7.936
8.036
7.988
7.936
7.944
8
7.98
7.908
7.916
7.98
7.972
7.944
7.916
7.956
7.98
7.94
7.904
7.94
8.004
7.936
7.908
7.96
8.012
7.948
7.912
7.936
8.012
7.944
7.908
7.932
7.984
7.98
7.944
7.944
7.96
7.968
7.924
7.932
7.96
8
7.92
7.916
7.964
8.02
7.952
7.932
7.928
8.032
8
7.932
7.948
8.012
7.968
7.932
7.952
8.004
7.996
7.948
7.94
8
8
7.936
7.924
7.98
8.016
7.972
7.928
7.98
8.008
7.976
7.944
7.952
8.036
8.02
8.02
8.064
8.084
8.112
8.088
8.108
8.224
8.196
8.148
8.144
8.232
8.212
8.156
8.088
8.136
8.172
8.072
8.004
8
8.04
7.984
7.936
7.96
8.024
7.948
7.932
7.96
8.032
7.988
7.908
7.944
8.012
7.968
7.864
7.824
7.82
7.984
8.528
9.38
10.324
10.824
10.204
9.74
9.52
9.076
8.6
8.228
8.148
8.236
8.168
8.112
8.092
8.124
8.072
8.016
8.008
8.088
8.072
7.996
7.988
8.048
8.044
8.012
7.988
8.048
8.084
8.016
7.996
8.02
8.088
8.032
8.016
8.028
8.104
8.04
8.02
8.048
8.108
8.08
8.04
8.048
8.148
8.112
8.056
8.068
8.116
8.152
8.088
8.088
8.14
8.176
8.136
8.12
8.16
8.22
8.172
8.16
8.204
8.284
8.224
8.196
8.244
8.344
8.32
8.3
8.34
8.44
8.444
8.416
8.436
8.52
8.528
8.496
8.5
8.588
8.64
8.576
8.56
8.632
8.624
8.548
8.492
8.456
8.464
8.38
8.296
8.272
8.304
8.212
8.136
8.124
8.148
8.12
8.04
8.036
8.056
8.072
8.004
7.964
8
8.052
7.988
7.956
8
8.048
8.004
7.964
7.98
8.048
7.988
7.952
7.984
8.008
8.004
7.968
7.976
8.048
8.032
7.948
7.96
8.024
8.048
7.956
7.972
7.996
8.02
7.964
7.956
7.992
8.036
7.976
7.948
7.98
8.056
7.984
7.94
7.968
8.028
7.992
7.944
7.94
8.012
8.004
7.956
7.944
7.948
8
7.94
7.916
7.96
8.016
7.932
7.916
7.96
8.008
7.952
7.896
7.932
8.004
7.956
7.92
7.916
7.988
7.98
7.932
7.912
7.988
7.96
7.912
7.928
7.96
7.984
7.924
7.904
7.952
8.008
7.936
7.904
7.956
8.02
7.948
7.9
7.912
8.008
7.984
7.912
7.948
7.984
7.964
7.928
7.956
7.984
7.988
7.892
7.888
7.98
8
7.932
7.896
7.964
8.012
7.948
7.916
7.94
7.996
7.94
7.924
7.968
8.016
7.936
7.916
7.936
8.008
7.952
7.924
7.94
8.004
7.968
7.948
7.92
7.992
8.044
7.996
8.02
8.08
8.12
8.076
8.104
8.16
8.192
8.144
8.124
8.16
8.22
8.128
8.036
8.072
8.136
8.048
7.964
7.952
7.988
7.984
7.932
7.928
7.952
7.964
7.904
7.904
7.928
7.992
7.908
7.896
7.936
7.972
7.848
7.796
7.76
8.128
8.716
9.52
10.408
10.64
10.068
9.648
9.36
8.924
8.496
8.156
8.116
8.168
8.184
8.096
8.024
8.024
8.092
7.98
7.964
8.008
8.044
8.004
7.98
7.972
8.056
7.988
7.948
7.984
8.044
8.008
7.936
7.944
8.052
8.06
7.976
7.976
8.024
8.072
7.996
7.976
8.036
8.084
8.024
8.028
8.056
8.12
8.036
7.996
8.048
8.128
8.1
8.04
8.08
8.16
8.144
8.08
8.104
8.144
8.184
8.128
8.148
8.196
8.236
8.192
8.188
8.28
8.336
8.272
8.26
8.364
8.424
8.364
8.38
8.46
8.528
8.512
8.504
8.516
8.612
8.592
8.516
8.544
8.596
8.556
8.448
8.424
8.42
8.384
8.272
8.212
8.22
8.224
8.124
8.08
8.08
8.128
8.052
8.016
7.992
8.068
8.02
7.964
7.988
8.024
7.972
7.936
7.948
8.004
8.024
7.948
7.936
7.98
8.052
7.952
7.916
7.972
8.004
7.96
7.944
7.964
8.004
7.972
7.944
7.992
8.048
7.968
7.936
7.944
8.024
7.98
7.928
7.936
7.984
8
7.94
7.92
7.988
8.004
7.936
7.928
7.996
8.036
7.948
7.892
7.956
8.016
7.96
7.932
7.948
8.028
8.012
7.94
7.928
7.984
7.968
7.932
7.932
7.976
8.016
7.924
7.936
7.972
8.008
7.944
7.912
7.944
8.02
7.932
7.916
7.96
7.992
7.932
7.916
7.94
8
7.968
7.932
7.932
7.972
7.98
7.92
7.94
7.984
8
7.928
7.92
7.972
8.036
7.952
7.932
7.96
8.012
7.948
7.928
7.96
8.02
7.944
7.912
7.956
8.012
7.98
7.912
7.964
8.016
7.992
7.908
7.92
7.96
8.004
7.952
7.932
7.988
8.028
7.952
7.94
7.972
8.004
7.936
7.924
7.98
8.04
7.96
7.92
7.948
8.056
8.048
8.004
8.044
8.108
8.14
8.128
8.14
8.196
8.188
8.148
8.164
8.192
8.224
8.144
8.096
8.136
8.196
8.024
7.956
7.996
8.052
7.964
7.912
7.948
8.024
7.976
7.908
7.932
7.96
7.988
7.916
7.936
7.972
7.96
7.828
7.812
7.82
8.244
8.876
9.728
10.62
10.652
10.02
9.672
9.356
8.92
8.452
8.172
8.164
8.188
8.18
8.132
8.092
8.124
8.088
8.024
8.016
8.06
8.088
7.992
8.008
8.036
8.068
8.016
8.016
8.044
8.096
8.028
8
8.056
8.116
8.048
8.008
8.036
8.128
8.1
8.028
8.028
8.08
8.096
8.056
8.056
8.116
8.148
8.06
8.08
8.128
8.156
8.056
8.076
8.168
8.212
8.14
8.14
8.176
8.248
8.2
8.18
8.196
8.3
8.284
8.26
8.284
8.372
8.404
8.316
8.376
8.448
8.496
8.448
8.46
8.568
8.62
8.556
8.56
8.632
8.72
8.66
8.628
8.664
8.712
8.596
8.524
8.492
8.508
8.436
8.332
8.308
8.328
8.284
8.18
8.14
8.16
8.156
8.088
8.06
8.092
8.128
8.056
8.028
8.056
8.12
8.032
8.016
8.036
8.104
8.044
8.008
8.052
8.096
8.06
8.016
8.04
8.084
8.084
8.028
8
8.068
8.124
8.04
7.996
8.072
8.108
8.028
8.012
8.052
8.116
8.032
8.008
8.04
8.092
8.032
7.988
8.024
8.076
8.068
8.008
8.008
8.048
8.048
8
8
8.04
8.068
7.984
7.972
8.008
8.088
7.992
7.98
8.004
8.064
8.004
7.952
8.02
8.068
8.016
7.996
8.008
8.036
8.008
7.988
7.996
8.016
8.052
7.972
7.984
8.028
8.068
7.972
7.98
8.012
8.076
8.008
7.992
8.008
8.072
7.992
7.988
8
8.06
8.016
7.96
8.012
8.04
8.032
7.968
7.964
8.02
8.052
7.984
7.988
8.028
8.076
8.004
7.992
8.032
8.036
7.996
7.976
8.028
8.08
8.024
7.976
8.012
8.08
8.036
8.016
8.012
8.06
8.04
8
7.996
8.052
8.068
7.996
7.972
8.036
8.08
8.004
8.028
8.112
8.188
8.116
8.116
8.176
8.288
8.224
8.188
8.2
8.296
8.244
8.2
8.208
8.248
8.2
8.156
8.14
8.1
8.088
8
7.98
8.04
8.108
8.016
7.98
8.024
8.104
7.976
7.972
8.012
8.068
8.004
7.952
7.952
7.968
7.884
7.896
8.404
9.248
10.152
10.808
10.496
10.048
9.76
9.264
8.772
8.412
8.312
8.228
8.196
8.224
8.24
8.128
8.096
8.104
8.144
8.084
8.024
8.084
8.152
8.1
8.064
8.076
8.14
8.124
8.076
8.044
8.1
8.132
8.068
8.092
8.124
8.168
8.088
8.088
8.152
8.176
8.108
8.068
8.136
8.22
8.148
8.108
8.16
8.208
8.176
8.132
8.128
8.224
8.24
8.172
8.2
8.244
8.288
8.192
8.236
8.284
8.34
8.272
8.26
8.324
8.408
8.368
8.324
8.416
8.48
8.476
8.456
8.488
8.584
8.584
8.572
8.6
8.68
8.708
8.648
8.676
8.756
8.744
8.676
8.64
8.628
8.66
8.512
8.436
8.452
8.472
8.34
8.28
8.256
8.272
8.192
8.14
8.152
8.212
8.144
8.072
8.076
8.14
8.144
8.044
8.068
8.108
8.16
8.064
8.064
8.068
8.136
8.048
8.048
8.084
8.148
8.068
8.036
8.092
8.132
8.06
8.02
8.068
8.116
8.116
8.052
8.076
8.1
8.1
8.032
8.036
8.08
8.124
8.044
8.044
8.084
8.128
8.016
8.02
8.056
8.128
8.064
8.008
8.064
8.116
8.064
8.016
8.024
8.072
8.064
8.012
8.04
8.092
8.076
8.012
8.012
8.076
8.088
8.016
7.996
8.056
8.112
8.032
8.004
8.048
8.116
8.032
7.992
8.056
8.092
8.044
8.008
8.056
8.1
8.08
8.028
8.016
8.088
8.108
8.04
8.04
8.048
8.08
8.008
8.008
8.032
8.104
8.028
8.008
8.056
8.104
8.048
8
8.06
8.108
8.076
8.008
8.036
8.08
8.092
8.016
8.04
8.092
8.076
8.048
8.028
8.064
8.1
8.016
8.04
8.072
8.116
8.04
8.004
8.068
8.128
8.072
8.024
8.06
8.124
8.084
8.032
8.024
8.084
8.076
8.048
8.048
8.112
8.116
8.016
8.068
8.12
8.172
8.128
8.14
8.188
8.28
8.216
8.208
8.232
8.32
8.268
8.248
8.276
8.304
8.24
8.18
8.204
8.216
8.14
8.052
8.06
8.112
8.116
8.02
8.012
8.068
8.12
8.012
8.004
8.044
8.096
8.036
8.02
8.036
8.028
7.912
7.864
7.96
8.556
9.316
10.16
10.852
10.492
9.996
9.62
9.192
8.792
8.432
8.26
8.24
8.256
8.256
8.168
8.152
8.148
8.172
8.08
8.056
8.096
8.16
8.1
8.044
8.064
8.128
8.128
8.068
8.096
8.136
8.128
8.076
8.064
8.128
8.144
8.036
8.084
8.148
8.156
8.1
8.056
8.132
8.192
8.112
8.096
8.144
8.2
8.156
8.104
8.16
8.2
8.192
8.136
8.176
8.236
8.208
8.172
8.18
8.232
8.268
8.224
8.228
8.288
8.368
8.304
8.296
8.352
8.44
8.408
8.364
8.436
8.524
8.492
8.472
8.544
8.608
8.632
8.604
8.644
8.7
8.696
8.632
8.636
8.656
8.648
8.54
8.464
8.456
8.444
8.32
8.284
8.284
8.288
8.184
8.148
8.16
8.16
8.1
8.016
8.064
8.128
8.072
8.024
8.044
8.06
8.096
8.024
8.036
8.06
8.088
8.004
8.012
8.064
8.104
8.008
8.008
8.052
8.104
8
7.976
8.032
8.108
8.048
7.992
8.008
8.04
8.056
7.988
8.024
8.04
8.072
7.964
8.004
8.048
8.064
7.984
7.976
8.012
8.084
7.972
7.968
8
8.052
8.012
7.952
8
8.048
8.004
7.972
7.992
8.016
8.024
7.936
7.996
8.024
8.02
7.968
7.956
8.016
8.032
7.944
7.952
8.004
8.032
7.968
7.968
8
8.016
7.96
7.928
7.976
8.032
7.976
7.924
7.976
8.008
8.004
7.924
7.952
8.008
8.004
7.928
7.944
7.976
8.02
7.964
7.956
7.976
8.016
7.952
7.924
7.988
8.052
7.968
7.936
7.968
8.02
8.012
7.952
7.956
8.012
8.004
7.944
7.952
7.996
8.02
7.94
7.96
8
8.024
7.94
7.932
7.992
8.02
7.956
7.944
7.972
8.004
7.972
7.932
7.976
8.024
7.964
7.92
7.96
8.02
7.988
7.944
7.948
8.016
8.012
7.96
7.936
7.996
8.052
8
7.996
8.076
8.148
8.084
8.1
8.156
8.216
8.18
8.148
8.168
8.228
8.192
8.136
8.136
8.18
8.16
8.06
8.012
8.028
8.06
7.956
7.948
7.98
8.032
7.952
7.952
7.984
8.02
7.956
7.924
7.976
8.012
7.956
7.848
7.872
7.876
7.836
8.208
8.956
9.924
10.732
10.504
9.984
9.696
9.324
8.82
8.396
8.236
8.24
8.16
8.136
8.152
8.176
8.04
8.016
8.044
8.1
8.028
7.976
8.012
8.084
8.068
8.02
8.024
8.08
8.06
8.024
8.044
8.08
8.096
8.012
8.02
8.08
8.112
8.044
8.004
8.068
8.144
8.064
8.052
8.088
8.124
8.084
8.056
8.076
8.14
8.12
8.096
8.128
8.136
8.152
8.084
8.144
8.216
8.224
8.144
8.16
8.22
8.268
8.22
8.208
8.264
8.328
8.296
8.292
8.38
8.408
8.396
8.376
8.46
8.528
8.504
8.476
8.536
8.624
8.652
8.572
8.616
8.668
8.68
8.588
8.552
8.56
8.548
8.428
8.364
8.372
8.356
8.24
8.2
8.196
8.2
8.152
8.072
8.06
8.088
8.08
8.004
8.024
8.088
8.064
7.996
8.008
8.04
8.052
7.972
8.008
8.056
8.084
8.012
7.992
8.008
8.052
7.992
7.984
8.04
8.048
8.036
7.976
8.032
8.052
8.012
7.984
7.988
8.024
8.032
7.972
7.996
8.04
8.056
7.976
7.968
8.02
8.056
7.988
7.96
8
8.04
7.988
7.96
8.024
8.048
8
7.944
7.976
8.044
7.98
7.94
7.976
8.028
8.016
7.944
7.952
8
8.036
7.968
7.96
7.988
8.032
7.968
7.96
8.008
8.044
7.98
7.936
7.976
8.032
7.984
7.932
7.968
8.028
8.024
7.972
7.984
8.016
8.012
7.964
7.988
8.012
8.02
7.972
7.984
8.04
8.056
7.956
7.944
8.004
8.024
7.976
7.956
8
8.036
8
7.956
7.992
8.016
7.984
7.964
7.98
8.052
8.016
7.956
7.956
8.016
8.036
7.96
7.968
8.004
8.048
7.996
7.956
7.964
8.044
7.988
7.96
7.984
8.032
8.004
7.952
7.992
8.004
7.992
7.964
7.992
8.024
8.048
7.952
7.948
8
8.028
7.964
7.972
8.024
8.064
8.04
8.036
8.096
8.14
8.128
8.128
8.192
8.232
8.192
8.144
8.188
8.24
8.224
8.128
8.136
8.188
8.176
8.024
8.016
8.044
8.064
7.98
7.976
8.004
8.032
7.948
7.948
8
8.016
7.944
7.928
7.996
8.016
7.968
7.868
7.876
7.856
8.14
8.748
9.64
10.536
10.732
10.112
9.784
9.52
9.064
8.568
8.248
8.228
8.26
8.204
8.14
8.148
8.136
8.084
8.036
8.076
8.084
8.072
8.048
8.064
8.112
8.076
8.028
8.056
8.084
8.12
8.036
8.044
8.112
8.124
8.052
8.04
8.088
8.148
8.108
8.036
8.104
8.132
8.096
8.048
8.104
8.128
8.124
8.076
8.12
8.156
8.176
8.096
8.112
8.176
8.212
8.128
8.152
8.212
8.232
8.188
8.216
8.248
8.292
8.264
8.244
8.332
8.376
8.36
8.348
8.408
8.44
8.46
8.444
8.504
8.584
8.6
8.556
8.608
8.684
8.708
8.648
8.668
8.7
8.704
8.588
8.548
8.56
8.544
8.448
8.348
8.356
8.352
8.244
8.18
8.2
8.196
8.156
8.06
8.108
8.124
8.124
8.048
8.04
8.096
8.068
8.032
8.032
8.076
8.092
8.036
8.008
8.04
8.064
8.048
8.004
8.06
8.072
8.052
8.02
8.048
8.08
8.064
8.008
8.044
8.1
8.092
8.008
8.016
8.08
8.072
8.016
8.02
8.052
8.076
8.036
8.032
8.064
8.088
8.04
7.992
8.06
8.076
8.028
7.988
8.024
8.096
8.072
7.98
8.032
8.076
8.076
7.996
8.02
8.072
8.056
7.988
8.004
8.06
8.076
8.012
7.996
8.036
8.076
8.04
8.004
8.02
8.072
8.044
8.012
8.036
8.052
8.052
8.004
8.02
8.064
8.06
8
8.02
8.056
8.048
8.012
8
8.036
8.048
8.016
7.98
8.016
8.02
8.036
7.996
8.032
8.052
8.024
7.988
8.04
8.052
8.032
7.988
8.028
8.052
8.052
7.988
8.008
8.052
8.064
7.992
8.008
8.056
8.056
8
8.016
8.028
8.06
8.02
7.988
8.036
8.06
8.024
7.996
8.044
8.052
8.072
7.976
8.012
8.032
8.092
8.008
8.036
8.068
8.072
8.068
8.1
8.136
8.192
8.176
8.176
8.244
8.236
8.212
8.184
8.24
8.264
8.244
8.16
8.204
8.228
8.192
8.064
8.048
8.076
8.068
8.004
8.016
8.072
8.068
7.98
7.988
8.06
8.068
8.008
7.972
8.008
8.044
7.996
7.844
7.92
7.904
8.184
8.792
9.716
10.62
10.832
10.2
9.852
9.56
9.12
8.596
8.312
8.256
8.292
8.216
8.164
8.188
8.184
8.104
8.06
8.104
8.084
8.084
8.06
8.108
8.116
8.088
8.06
8.1
8.112
8.104
8.036
8.096
8.108
8.112
8.052
8.08
8.124
8.116
8.088
8.096
8.124
8.124
8.088
8.096
8.14
8.152
8.12
8.084
8.152
8.196
8.168
8.128
8.152
8.192
8.208
8.164
8.176
8.228
8.228
8.208
8.232
8.3
8.296
8.252
8.276
8.316
8.388
8.372
8.364
8.44
8.488
8.484
8.464
8.552
8.596
8.62
8.6
8.664
8.72
8.736
8.692
8.7
8.752
8.696
8.656
8.624
8.616
8.58
8.468
8.408
8.396
8.356
8.288
8.236
8.232
8.216
8.18
8.148
8.164
8.152
8.132
8.064
8.08
8.132
8.104
8.056
8.044
8.112
8.108
8.068
8.06
8.096
8.08
8.08
8.064
8.108
8.072
8.072
8.056
8.092
8.1
8.08
8.052
8.072
8.104
8.108
8.056
8.064
8.116
8.124
8.064
8.04
8.1
8.088
8.048
8.084
8.104
8.092
8.06
8.064
8.112
8.112
8.032
8.056
8.084
8.104
8.08
8.044
8.068
8.088
8.076
8.044
8.08
8.092
8.072
8.016
8.028
8.088
8.064
8.02
8.04
8.072
8.08
8.032
8.024
8.064
8.1
8.052
8
8.064
8.068
8.072
8.008
8.064
8.072
8.08
8.024
8.056
8.1
8.072
8.028
8.048
8.084
8.108
8.052
8.052
8.06
8.096
8.056
8.048
8.084
8.08
8.052
8.044
8.092
8.076
8.076
8.016
8.072
8.084
8.072
8.024
8.048
8.108
8.076
8.016
8.032
8.068
8.072
8.024
8.036
8.068
8.092
8.04
8.06
8.072
8.084
8.056
8.02
8.084
8.104
8.084
8.028
8.064
8.068
8.092
8.02
8.06
8.06
8.068
8.028
8.06
8.092
8.088
8.096
8.12
8.176
8.196
8.188
8.188
8.264
8.284
8.236
8.22
8.28
8.28
8.256
8.204
8.224
8.236
8.212
8.1
8.1
8.104
8.08
8.02
8.024
8.092
8.08
7.996
8.02
8.068
8.056
8.008
8
8.064
8.064
7.98
7.936
7.964
7.904
8.156
8.756
9.712
10.628
10.8
10.156
9.836
9.564
9.068
8.584
8.304
8.324
8.288
8.212
8.204
8.2
8.152
8.124
8.068
8.108
8.12
8.096
8.076
8.12
8.148
8.096
8.072
8.1
8.144
8.112
8.088
8.072
8.124
8.148
8.084
8.104
8.14
8.14
8.104
8.112
8.16
8.152
8.132
8.116
8.168
8.184
8.144
8.108
8.164
8.188
8.192
8.152
8.156
8.204
8.18
8.184
8.22
8.252
8.24
8.212
8.256
8.276
8.3
8.28
8.296
8.36
8.384
8.392
8.396
8.448
8.476
8.488
8.48
8.552
8.608
8.604
8.6
8.68
8.72
8.708
8.672
8.7
8.736
8.72
8.636
8.616
8.632
8.556
8.484
8.432
8.412
8.38
8.304
8.26
8.264
8.228
8.188
8.136
8.172
8.192
8.124
8.08
8.12
8.16
8.116
8.06
8.08
8.14
8.132
8.08
8.084
8.136
8.12
8.064
8.072
8.132
8.132
8.092
8.052
8.136
8.144
8.096
8.064
8.112
8.152
8.136
8.044
8.088
8.136
8.108
8.056
8.088
8.104
8.136
8.04
8.084
8.124
8.1
8.076
8.084
8.116
8.116
8.08
8.056
8.096
8.108
8.104
8.056
8.088
8.084
8.084
8.032
8.084
8.104
8.092
8.012
8.084
8.136
8.104
8.056
8.08
8.112
8.1
8.04
8.064
8.112
8.068
8.052
8.048
8.104
8.104
8.056
8.044
8.092
8.104
8.076
8
8.052
8.104
8.08
8.016
8.068
8.108
8.068
8.032
8.064
8.08
8.08
8.048
8.06
8.1
8.08
8.04
8.036
8.104
8.116
8.036
8.012
8.076
8.104
8.064
8.032
8.064
8.084
8.068
8.052
8.076
8.096
8.096
8.02
8.072
8.096
8.06
8.064
8.044
8.12
8.104
8.072
8.04
8.084
8.116
8.088
8.048
8.08
8.092
8.056
8.048
8.08
8.156
8.148
8.128
8.176
8.236
8.216
8.216
8.24
8.296
8.284
8.232
8.244
8.312
8.284
8.236
8.204
8.232
8.208
8.14
8.06
8.1
8.104
8.096
8
8.036
8.096
8.06
8.028
8.044
8.064
8.072
8.032
8.036
8.096
8.02
7.948
7.94
7.912
8.196
8.792
9.624
10.572
10.816
10.224
9.792
9.532
9.116
8.66
8.312
8.292
8.316
8.256
8.204
8.2
8.204
8.156
8.108
8.108
8.156
8.12
8.092
8.084
8.12
8.116
8.104
8.064
8.108
8.144
8.1
8.072
8.12
8.144
8.12
8.104
8.124
8.144
8.136
8.092
8.132
8.184
8.148
8.144
8.12
8.184
8.176
8.152
8.152
8.192
8.208
8.188
8.192
8.216
8.224
8.244
8.24
8.268
8.284
8.288
8.256
8.288
8.356
8.328
8.296
8.364
8.428
8.416
8.42
8.448
8.5
8.508
8.552
8.564
8.648
8.664
8.664
8.676
8.752
8.752
8.744
8.712
8.752
8.752
8.704
8.636
8.608
8.604
8.528
8.464
8.42
8.404
8.324
8.284
8.26
8.26
8.168
8.188
8.156
8.204
8.152
8.144
8.104
8.136
8.144
8.156
8.068
8.112
8.144
8.144
8.092
8.108
8.148
8.112
8.104
8.112
8.156
8.096
8.088
8.092
8.148
8.084
8.124
8.092
8.136
8.096
8.144
8.076
8.116
8.08
8.148
8.104
8.144
8.112
8.116
8.068
8.088
8.112
8.128
8.084
8.096
8.104
8.1
8.096
8.076
8.084
8.092
8.116
8.088
8.112
8.076
8.096
8.072
8.096
8.068
8.084
8.06
8.104
8.084
8.108
8.08
8.112
8.108
8.112
8.06
8.072
8.084
8.088
8.104
8.084
8.1
8.084
8.088
8.048
8.104
8.068
8.12
8.064
8.1
8.084
8.104
8.068
8.092
8.048
8.12
8.072
8.084
8.076
8.08
8.052
8.072
8.056
8.088
8.076
8.08
8.092
8.076
8.096
8.068
8.072
8.104
8.116
8.072
8.112
8.06
8.124
8.08
8.104
8.06
8.108
8.076
8.108
8.076
8.108
8.076
8.088
8.092
8.108
8.088
8.112
8.128
8.172
8.176
8.148
8.2
8.212
8.304
8.276
8.272
8.3
8.328
8.268
8.28
8.288
8.304
8.248
8.248
8.212
8.14
8.088
8.096
8.084
8.124
8.092
8.092
8.06
8.084
8.096
8.036
8.04
8.076
8.088
8.048
8.04
8.024
8.032
7.928
7.952
8.504
9.3
10.164
10.856
10.588
10.116
9.768
9.436
8.956
8.58
8.316
8.3
8.284
8.288
8.24
8.196
8.168
8.184
8.176
8.112
8.112
8.164
8.172
8.124
8.096
8.148
8.168
8.132
8.08
8.156
8.152
8.104
8.112
8.16
8.176
8.148
8.116
8.156
8.212
8.2
8.14
8.136
8.212
8.208
8.16
8.156
8.236
8.232
8.188
8.176
8.252
8.276
8.232
8.192
8.28
8.316
8.252
8.22
8.312
8.344
8.332
8.272
8.356
8.4
8.412
8.372
8.436
8.464
8.528
8.488
8.528
8.616
8.632
8.592
8.608
8.72
8.756
8.712
8.704
8.78
8.796
8.792
8.704
8.78
8.736
8.652
8.548
8.56
8.52
8.484
8.344
8.368
8.356
8.32
8.204
8.212
8.256
8.24
8.168
8.12
8.2
8.196
8.152
8.112
8.18
8.164
8.136
8.076
8.172
8.136
8.152
8.072
8.148
8.164
8.164
8.076
8.144
8.188
8.192
8.076
8.112
8.152
8.176
8.104
8.14
8.192
8.176
8.124
8.08
8.176
8.168
8.124
8.084
8.148
8.148
8.164
8.064
8.132
8.136
8.156
8.032
8.144
8.136
8.164
8.04
8.128
8.152
8.14
8.024
8.084
8.136
8.14
8.072
8.08
8.132
8.148
8.084
8.052
8.132
8.108
8.116
8.056
8.144
8.112
8.128
7.996
8.12
8.136
8.156
8.024
8.092
8.14
8.12
8.024
8.1
8.124
8.116
8.04
8.064
8.144
8.132
8.048
8.064
8.128
8.116
8.072
8.032
8.136
8.12
8.084
8.02
8.104
8.124
8.132
8.032
8.1
8.108
8.124
8.016
8.096
8.144
8.124
8.024
8.072
8.144
8.12
8.04
8.048
8.12
8.136
8.096
8.048
8.128
8.116
8.096
8.048
8.1
8.128
8.14
8.04
8.112
8.112
8.136
8.044
8.152
8.196
8.22
8.168
8.204
8.268
8.312
8.244
8.26
8.304
8.292
8.284
8.284
8.332
8.296
8.236
8.18
8.252
8.184
8.144
8.02
8.1
8.132
8.116
8.016
8.084
8.116
8.1
8
8.056
8.1
8.092
8.028
8
8.016
8
7.928
7.92
8.54
9.32
10.24
10.844
10.56
10.092
9.768
9.24
8.876
8.5
8.352
8.248
8.296
8.296
8.268
8.14
8.16
8.2
8.168
8.112
8.088
8.148
8.156
8.116
8.08
8.152
8.144
8.152
8.064
8.12
8.12
8.148
8.068
8.136
8.16
8.132
8.064
8.132
8.168
8.164
8.08
8.1
8.184
8.204
8.112
8.14
8.216
8.188
8.184
8.16
8.228
8.228
8.212
8.152
8.268
8.272
8.26
8.176
8.3
8.368
8.324
8.26
8.324
8.392
8.392
8.36
8.404
8.484
8.508
8.464
8.512
8.592
8.612
8.612
8.608
8.708
8.72
8.744
8.7
8.776
8.808
8.78
8.684
8.716
8.704
8.664
8.536
8.532
8.512
8.448
8.336
8.308
8.364
8.316
8.212
8.176
8.232
8.192
8.168
8.088
8.176
8.168
8.152
8.056
8.144
8.144
8.152
8.064
8.116
8.156
8.156
8.048
8.128
8.168
8.148
8.092
8.084
8.18
8.192
8.108
8.088
8.144
8.14
8.144
8.092
8.144
8.16
8.152
8.084
8.168
8.156
8.152
8.072
8.116
8.152
8.164
8.048
8.108
8.16
8.144
8.08
8.08
8.148
8.132
8.104
8.072
8.164
8.128
8.116
8.064
8.14
8.124
8.128
8.028
8.124
8.148
8.132
8.044
8.096
8.148
8.112
8.04
8.088
8.132
8.092
8.052
8.084
8.156
8.104
8.072
8.052
8.14
8.136
8.084
8.024
8.136
8.148
8.128
8.056
8.096
8.136
8.108
8.044
8.088
8.124
8.088
8.032
8.076
8.124
8.076
8.056
8.064
8.132
8.12
8.08
8.04
8.124
8.108
8.116
8.04
8.116
8.096
8.14
8.044
8.124
8.12
8.116
8.04
8.1
8.152
8.128
8.052
8.1
8.14
8.104
8.076
8.08
8.16
8.1
8.072
8.072
8.144
8.108
8.096
8.02
8.156
8.14
8.164
8.108
8.208
8.248
8.24
8.18
8.26
8.34
8.324
8.252
8.28
8.34
8.304
8.256
8.236
8.3
8.256
8.208
8.112
8.16
8.164
8.128
8.06
8.1
8.14
8.116
8.024
8.104
8.124
8.084
8.052
8.1
8.128
8.084
7.988
7.992
8.028
7.972
8.348
9.064
10.036
10.8
10.632
10.032
9.792
9.464
8.984
8.492
8.364
8.356
8.348
8.24
8.264
8.228
8.192
8.1
8.144
8.168
8.144
8.088
8.112
8.18
8.148
8.116
8.116
8.18
8.128
8.14
8.096
8.164
8.156
8.16
8.084
8.192
8.176
8.152
8.08
8.176
8.192
8.184
8.12
8.16
8.24
8.224
8.14
8.18
8.24
8.228
8.2
8.208
8.28
8.268
8.236
8.216
8.292
8.312
8.3
8.244
8.332
8.38
8.344
8.316
8.392
8.464
8.452
8.404
8.48
8.536
8.528
8.488
8.584
8.636
8.652
8.648
8.64
8.752
8.764
8.764
8.736
8.784
8.78
8.74
8.636
8.648
8.648
8.568
8.452
8.472
8.44
8.36
8.288
8.308
8.308
8.236
8.18
8.148
8.188
8.192
8.108
8.104
8.172
8.172
8.136
8.08
8.124
8.148
8.14
8.064
8.128
8.152
8.112
8.044
8.14
8.148
8.108
8.056
8.12
8.164
8.132
8.06
8.088
8.16
8.12
8.116
8.08
8.148
8.136
8.108
8.08
8.156
8.136
8.128
8.064
8.128
8.14
8.092
8.044
8.108
8.136
8.1
8.048
8.084
8.128
8.08
8.052
8.064
8.124
8.1
8.092
8.06
8.148
8.104
8.08
8.024
8.096
8.116
8.12
8.052
8.112
8.12
8.064
8.04
8.104
8.14
8.096
8.032
8.1
8.14
8.096
8.068
8.072
8.156
8.104
8.084
8.056
8.148
8.132
8.12
8.04
8.136
8.14
8.116
8.056
8.124
8.14
8.104
8.032
8.132
8.16
8.104
8.048
8.08
8.156
8.124
8.048
8.072
8.144
8.128
8.104
8.06
8.14
8.096
8.124
8.048
8.144
8.132
8.096
8.06
8.136
8.136
8.084
8.052
8.1
8.136
8.092
8.036
8.064
8.128
8.104
8.068
8.08
8.14
8.1
8.084
8.06
8.152
8.108
8.108
8.044
8.156
8.16
8.164
8.12
8.228
8.248
8.24
8.2
8.3
8.328
8.28
8.26
8.3
8.34
8.272
8.216
8.204
8.26
8.216
8.132
8.072
8.14
8.128
8.072
8.016
8.104
8.104
8.064
8.044
8.12
8.072
8.06
8.008
8.1
8.064
8
7.94
7.968
7.964
8.32
8.984
9.888
10.756
10.664
10.096
9.716
9.444
8.976
8.564
8.312
8.336
8.324
8.28
8.184
8.228
8.208
8.148
8.092
8.156
8.16
8.116
8.084
8.104
8.16
8.12
8.112
8.104
8.144
8.104
8.108
8.104
8.156
8.132
8.128
8.088
8.144
8.168
8.112
8.112
8.148
8.148
8.144
8.112
8.18
8.192
8.148
8.152
8.168
8.212
8.168
8.188
8.18
8.272
8.224
8.236
8.2
8.292
8.268
8.268
8.248
8.332
8.34
8.316
8.328
8.408
8.432
8.428
8.404
8.488
8.54
8.52
8.512
8.552
8.628
8.656
8.636
8.64
8.736
8.74
8.76
8.708
8.768
8.716
8.696
8.584
8.624
8.556
8.48
8.392
8.424
8.376
8.304
8.236
8.236
8.26
8.208
8.164
8.156
8.176
8.156
8.132
8.092
8.16
8.096
8.12
8.104
8.132
8.116
8.1
8.06
8.14
8.136
8.096
8.064
8.112
8.152
8.12
8.1
8.12
8.136
8.128
8.12
8.124
8.132
8.116
8.108
8.088
8.176
8.1
8.1
8.092
8.152
8.12
8.108
8.044
8.132
8.112
8.088
8.04
8.1
8.12
8.084
8.048
8.084
8.104
8.072
8.044
8.06
8.108
8.072
8.076
8.056
8.1
8.092
8.06
8.024
8.116
8.108
8.064
8.044
8.096
8.096
8.064
8.032
8.08
8.104
8.064
8.024
8.064
8.084
8.064
8.06
8.04
8.108
8.08
8.032
8.032
8.096
8.052
8.04
8.024
8.112
8.076
8.072
8
8.104
8.096
8.052
8.004
8.068
8.084
8.068
8.024
8.056
8.084
8.04
8.064
8.064
8.088
8.068
8.092
8.052
8.108
8.068
8.08
8.028
8.092
8.084
8.056
8.024
8.06
8.084
8.052
8.02
8.064
8.088
8.04
8.056
8.076
8.104
8.06
8.064
8.052
8.112
8.072
8.08
8.052
8.088
8.052
8.072
8.068
8.16
8.144
8.148
8.156
8.244
8.26
8.244
8.248
8.296
8.296
8.28
8.268
8.296
8.284
8.228
8.228
8.18
8.192
8.112
8.076
8.052
8.128
8.088
8.072
8.032
8.104
8.076
8.06
8.02
8.084
8.072
8.06
8.004
8.028
8
7.956
7.868
8.088
8.72
9.508
10.384
10.792
10.336
9.9
9.624
9.172
8.808
8.404
8.288
8.248
8.312
8.272
8.204
8.14
8.184
8.14
8.108
8.068
8.112
8.132
8.092
8.112
8.132
8.148
8.088
8.1
8.1
8.136
8.096
8.116
8.068
8.168
8.152
8.124
8.04
8.128
8.136
8.132
8.112
8.16
8.16
8.144
8.128
8.156
8.192
8.156
8.16
8.18
8.22
8.18
8.204
8.196
8.268
8.244
8.232
8.224
8.304
8.272
8.296
8.276
8.312
8.344
8.348
8.368
8.428
8.444
8.452
8.472
8.536
8.572
8.556
8.584
8.644
8.692
8.688
8.724
8.692
8.768
8.756
8.712
8.696
8.74
8.684
8.604
8.544
8.548
8.488
8.392
8.332
8.312
8.316
8.244
8.188
8.2
8.18
8.148
8.12
8.116
8.14
8.124
8.112
8.088
8.148
8.076
8.064
8.064
8.132
8.1
8.08
8.036
8.092
8.112
8.092
8.048
8.112
8.084
8.092
8.1
8.128
8.112
8.092
8.08
8.096
8.128
8.104
8.064
8.056
8.136
8.124
8.092
8.056
8.124
8.084
8.076
8.056
8.104
8.096
8.064
8.052
8.088
8.092
8.064
8.056
8.08
8.092
8.06
8.064
8.072
8.096
8.072
8.08
8.032
8.068
8.036
8.08
8.06
8.096
8.048
8.06
8.044
8.076
8.072
8.04
8.052
8.08
8.076
8.048
8.06
8.068
8.084
8.06
8.072
8.052
8.096
8.088
8.092
8.088
8.108
8.076
8.056
8.052
8.116
8.08
8.06
8.044
8.112
8.096
8.068
8.04
8.108
8.068
8.08
8.088
8.092
8.088
8.08
8.096
8.08
8.132
8.104
8.104
8.08
8.136
8.088
8.076
8.052
8.1
8.06
8.064
8.068
8.1
8.08
8.06
8.076
8.1
8.1
8.06
8.068
8.084
8.12
8.068
8.092
8.084
8.148
8.14
8.18
8.16
8.232
8.204
8.236
8.26
8.296
8.268
8.24
8.292
8.32
8.304
8.252
8.24
8.264
8.264
8.172
8.132
8.088
8.116
8.08
8.096
8.064
8.104
8.052
8.06
8.06
8.084
8.06
8.032
8.036
8.124
8.052
7.964
7.932
7.936
8.088
8.624
9.468
10.432
10.98
10.512
10.044
9.732
9.3
8.824
8.464
8.34
8.352
8.284
8.292
8.224
8.252
8.18
8.176
8.132
8.18
8.12
8.12
8.112
8.14
8.148
8.12
8.156
8.184
8.132
8.14
8.156
8.164
8.152
8.144
8.164
8.148
8.192
8.18
8.18
8.164
8.204
8.188
8.16
8.164
8.24
8.184
8.188
8.216
8.244
8.216
8.192
8.216
8.256
8.264
8.228
8.272
8.28
8.328
8.332
8.336
8.332
8.368
8.352
8.384
8.412
8.468
8.452
8.476
8.5
8.596
8.564
8.564
8.608
8.668
8.696
8.684
8.712
8.752
8.768
8.792
8.816
8.764
8.788
8.736
8.72
8.644
8.636
8.532
8.516
8.444
8.46
8.352
8.304
8.268
8.292
8.216
8.172
8.188
8.212
8.176
8.164
8.152
8.164
8.152
8.116
8.164
8.152
8.164
8.112
8.152
8.112
8.148
8.132
8.124
8.096
8.16
8.112
8.124
8.108
8.16
8.14
8.116
8.124
8.144
8.152
8.116
8.1
8.136
8.148
8.132
8.132
8.144
8.168
8.148
8.128
8.116
8.132
8.104
8.12
8.088
8.132
8.096
8.104
8.104
8.148
8.088
8.064
8.092
8.128
8.104
8.064
8.104
8.112
8.116
8.092
8.136
8.084
8.112
8.072
8.104
8.092
8.104
8.076
8.092
8.092
8.12
8.088
8.072
8.06
8.132
8.084
8.068
8.088
8.112
8.104
8.096
8.1
8.112
8.124
8.08
8.104
8.088
8.112
8.068
8.088
8.056
8.112
8.096
8.096
8.084
8.112
8.06
8.08
8.064
8.12
8.084
8.064
8.1
8.136
8.12
8.096
8.124
8.112
8.124
8.084
8.1
8.084
8.144
8.084
8.116
8.076
8.128
8.084
8.108
8.092
8.128
8.092
8.08
8.096
8.132
8.104
8.064
8.076
8.128
8.128
8.104
8.1
8.084
8.116
8.12
8.148
8.152
8.204
8.184
8.224
8.212
8.264
8.264
8.296
8.304
8.304
8.28
8.296
8.288
8.312
8.276
8.224
8.244
8.24
8.164
8.12
8.152
8.112
8.104
8.068
8.112
8.096
8.096
8.06
8.068
8.064
8.128
8.064
8.056
8.052
8.032
7.984
7.932
7.92
8.412
9.14
10.048
10.84
10.672
10.112
9.76
9.384
8.952
8.544
8.364
8.352
8.316
8.308
8.252
8.2
8.164
8.18
8.16
8.136
8.12
8.172
8.144
8.092
8.112
8.18
8.136
8.088
8.144
8.156
8.164
8.124
8.164
8.16
8.192
8.16
8.164
8.136
8.188
8.152
8.172
8.14
8.216
8.152
8.164
8.192
8.208
8.172
8.168
8.204
8.248
8.212
8.196
8.24
8.264
8.268
8.26
8.292
8.292
8.3
8.304
8.332
8.348
8.388
8.372
8.372
8.428
8.516
8.476
8.484
8.5
8.576
8.576
8.612
8.636
8.688
8.704
8.708
8.776
8.776
8.772
8.724
8.764
8.74
8.708
8.62
8.612
8.552
8.496
8.46
8.412
8.364
8.364
8.264
8.24
8.204
8.208
8.168
8.148
8.16
8.172
8.136
8.112
8.124
8.116
8.108
8.112
8.1
8.096
8.136
8.08
8.116
8.108
8.128
8.092
8.084
8.1
8.136
8.088
8.088
8.092
8.148
8.092
8.068
8.088
8.128
8.104
8.084
8.14
8.096
8.1
8.096
8.108
8.088
8.104
8.076
8.104
8.092
8.088
8.06
8.076
8.072
8.092
8.036
8.036
8.064
8.068
8.068
8.052
8.064
8.084
8.04
8.048
8.096
8.056
8.064
8.024
8.08
8.036
8.06
8.06
8.084
8.068
8.068
8.036
8.04
8.056
8.096
8.064
8.06
8.068
8.076
8.064
8.06
8.024
8.064
8.068
8.036
8.076
8.06
8.06
8.036
8.064
8.072
8.092
8.06
8.064
8.048
8.052
8.028
8.04
8.048
8.092
8.028
8.056
8.076
8.08
8.036
8.044
8.052
8.08
8.06
8.04
8.092
8.068
8.076
8.032
8.108
8.044
8.052
8.04
8.084
8.088
8.056
8.04
8.068
8.064
8.104
8.052
8.036
8.068
8.092
8.064
8.048
8.06
8.068
8.044
8.06
8.08
8.076
8.092
8.096
8.18
8.116
8.188
8.18
8.236
8.208
8.252
8.196
8.256
8.264
8.284
8.26
8.204
8.224
8.22
8.14
8.088
8.088
8.076
8.072
8.028
8.096
8.028
8.02
7.992
8.064
8.02
8.008
8.016
8.048
8.004
8.016
7.956
7.956
7.92
7.912
8.18
8.9
9.792
10.656
10.656
10.08
9.764
9.452
8.992
8.532
8.332
8.248
8.284
8.236
8.192
8.116
8.124
8.076
8.12
8.076
8.096
8.056
8.088
8.108
8.088
8.068
8.064
8.08
8.068
8.044
8.012
8.096
8.084
8.084
8.08
8.14
8.06
8.084
8.06
8.108
8.08
8.1
8.096
8.144
8.1
8.116
8.108
8.128
8.116
8.144
8.12
8.16
8.188
8.184
8.188
8.192
8.264
8.22
8.196
8.2
8.324
8.284
8.268
8.268
8.372
8.344
8.392
8.356
8.432
8.456
8.5
8.492
8.52
8.54
8.6
8.608
8.644
8.72
8.704
8.656
8.684
8.76
8.676
8.688
8.632
8.66
8.568
8.492
8.432
8.432
8.348
8.304
8.236
8.248
8.188
8.164
8.096
8.132
8.164
8.104
8.068
8.064
8.132
8.104
8.052
8.052
8.056
8.08
8.064
8.072
8.108
8.076
8.064
8.024
8.116
8.072
8.068
8.052
8.088
8.076
8.104
8.036
8.092
8.104
8.124
8.04
8.032
8.1
8.068
8.052
8.044
8.116
8.048
8.04
8.028
8.12
8.052
8.064
8.016
8.1
8.052
8.064
8.004
8.056
8.036
8.064
8.028
8.04
8.084
8.06
8.024
7.98
8.092
8.04
8.008
8.016
8.068
8.024
8
8.008
8.064
8.064
8.04
8.004
8.052
8.016
8.032
7.984
8.052
8.028
8.056
8.02
8.048
8.072
8.068
8.02
8.028
8.088
8.036
8.008
8.008
8.06
8.048
8.024
7.98
8.072
8.02
8.008
8.024
8.096
8.044
8.048
7.988
8.072
8.072
8.06
8.024
8.02
8.056
8.048
8.024
8.012
8.08
8.068
8.032
8.008
8.084
8.06
8.012
8.004
8.084
8.06
8.06
8.004
8.056
8.036
8.048
7.996
8.04
8.032
8.06
8.012
8.04
8.048
8.064
8.004
8.024
8.108
8.124
8.104
8.132
8.244
8.228
8.216
8.208
8.28
8.24
8.212
8.204
8.256
8.248
8.2
8.168
8.22
8.156
8.108
8.036
8.072
8.092
8.032
8.016
8.032
8.08
8.028
8.012
7.996
8.068
8.02
8.024
7.976
8.032
7.952
7.92
7.836
7.964
8.464
9.252
10.12
10.924
10.612
10.088
9.724
9.368
8.936
8.488
8.212
8.228
8.28
8.22
8.204
8.136
8.176
8.1
8.084
8.06
8.116
8.084
8.08
8.044
8.12
8.06
8.076
8.048
8.092
8.08
8.096
8.064
8.108
8.136
8.1
8.072
8.092
8.124
8.112
8.088
8.1
8.16
8.132
8.108
8.116
8.208
8.168
8.16
8.096
8.192
8.176
8.2
8.176
8.22
8.212
8.22
8.216
8.232
8.276
8.26
8.256
8.276
8.364
8.332
8.332
8.324
8.44
8.444
8.46
8.436
8.56
8.556
8.584
8.58
8.648
8.664
8.672
8.696
8.732
8.792
8.756
8.724
8.704
8.74
8.676
8.608
8.536
8.568
8.468
8.392
8.304
8.368
8.276
8.244
8.188
8.212
8.132
8.144
8.1
8.176
8.132
8.124
8.06
8.088
8.128
8.084
8.04
8.064
8.124
8.08
8.048
8.088
8.168
8.144
8.16
8.112
8.06
7.744
7.524
7.224
7.044
6.912
6.652
6.36
6.212
5.996
5.812
5.74
5.728
5.836
6.024
6.236
6.424
6.708
6.864
7.004
7.164
7.352
7.428
7.7
7.904
8.128
8.128
8.192
8.164
8.284
8.3
8.32
8.332
8.42
8.456
8.464
8.46
8.512
8.568
8.532
8.54
8.536
8.636
8.636
8.624
8.636
8.74
8.736
8.752
8.728
8.856
8.844
8.872
8.844
8.98
8.98
8.972
8.988
9.112
9.176
9.184
9.188
9.292
9.388
9.408
9.444
9.552
9.676
9.728
9.74
9.812
9.972
9.96
9.996
10.016
10.14
10.124
10.084
10.032
10.08
10
9.924
9.796
9.74
9.66
9.54
9.376
9.276
9.18
9.048
8.9
8.788
8.74
8.636
8.516
8.452
8.48
8.364
8.304
8.232
8.288
8.228
8.208
8.124
8.184
8.176
8.148
8.1
8.136
8.132
8.12
8.08
8.112
8.152
8.092
8.032
8.068
8.148
8.072
8.056
8.04
8.14
8.084
8.04
8
8.108
8.068
8.056
8.004
8.084
8.052
8.032
8.016
8.044
8.06
8.028
7.98
7.988
8.056
7.992
7.968
7.992
8.072
8.032
7.968
7.964
8.064
7.992
7.984
7.928
8.064
8.012
7.98
7.932
8.04
8.024
7.996
7.948
7.996
8.016
7.992
7.96
7.972
8.052
7.972
7.964
7.968
8.052
7.976
7.956
7.964
8.06
8
7.956
7.944
8.04
8.008
7.964
7.932
8.012
8.032
7.988
7.916
7.956
8.004
7.984
7.944
7.956
8.024
7.984
7.94
7.936
8.04
7.996
7.936
7.912
8.044
7.984
7.94
7.928
8.048
7.992
7.98
7.928
7.992
8.004
7.976
7.916
7.964
8.02
7.968
7.952
7.94
8.036
7.984
7.94
7.928
8.064
7.992
7.948
7.92
8.028
7.98
7.96
7.936
8.02
7.98
7.964
7.924
8.016
8.028
7.984
7.94
7.964
8.04
8.016
7.928
7.94
8.06
7.988
7.984
7.944
8.044
8.02
7.964
7.956
8.044
8.016
7.976
7.964
8.048
8.024
7.988
7.94
7.996
8.008
8.004
7.96
7.976
8.024
8.004
7.928
7.96
8.036
7.948
7.956
7.96
8.052
7.984
7.976
7.92
8.068
8.012
7.992
7.936
8.024
8.004
7.984
7.932
8.004
8.04
7.996
7.96
8.012
8.08
7.996
7.964
7.98
8.088
8.012
7.96
7.952
8.072
8.036
8
7.972
8.08
8.04
8.008
7.964
8.052
8.032
7.996
7.98
8.044
8.04
8
7.98
8.012
8.088
8.048
8
8.052
8.172
8.132
8.116
8.116
8.26
8.212
8.176
8.164
8.284
8.224
8.204
8.18
8.28
8.252
8.176
8.164
8.196
8.148
8.064
8.032
8.036
8.084
8.048
7.976
7.992
8.1
8.016
7.96
7.968
8.072
7.996
7.932
7.828
7.916
7.8
8.024
8.644
9.668
10.628
10.98
10.36
9.976
9.628
9.056
8.604
8.372
8.348
8.296
8.192
8.184
8.232
8.128
8.064
8.032
8.148
8.084
8.004
7.996
8.096
8.056
8.02
7.96
8.044
8.06
8.02
7.972
8.06
8.092
8.032
8
8.036
8.108
8.032
7.98
8
8.128
8.06
8.052
8.028
8.144
8.096
8.052
8.048
8.136
8.112
8.072
8.032
8.152
8.148
8.108
8.076
8.112
8.164
8.144
8.088
8.136
8.236
8.188
8.156
8.168
8.28
8.24
8.228
8.216
8.336
8.34
8.304
8.296
8.464
8.444
8.408
8.388
8.512
8.544
8.536
8.516
8.58
8.668
8.624
8.584
8.596
8.676
8.576
8.516
8.476
8.516
8.448
8.34
8.292
8.364
8.264
8.184
8.148
8.204
8.168
8.104
8.048
8.092
8.124
8.072
8.004
8.052
8.092
8.02
7.98
8.012
8.1
8.04
7.952
7.952
8.076
8.032
7.972
7.956
8.068
8.024
8.012
7.944
8.028
8
7.98
7.952
8.008
8.024
7.944
7.932
7.996
8.032
7.948
7.924
7.944
8.036
7.984
7.94
7.912
8.036
7.948
7.928
7.916
8
7.968
7.936
7.924
8.008
7.992
7.936
7.924
7.956
8.012
7.928
7.904
7.956
8.028
7.956
7.916
7.936
8.024
7.944
7.912
7.924
8.024
7.94
7.908
7.896
8.004
7.968
7.94
7.888
7.976
7.984
7.928
7.912
7.964
7.988
7.952
7.904
7.92
7.98
7.944
7.916
7.952
8.048
7.968
7.92
7.908
8.036
7.976
7.924
7.892
8.02
7.992
7.928
7.892
7.972
7.988
7.94
7.888
7.956
8.008
7.924
7.912
7.964
8.036
7.924
7.9
7.912
8.048
7.98
7.908
7.908
8.052
8.028
8
8.008
8.128
8.1
8.072
8.068
8.196
8.2
8.12
8.108
8.152
8.228
8.144
8.088
8.1
8.156
8.064
7.968
7.952
8.048
7.98
7.932
7.924
8.032
7.984
7.916
7.884
7.996
7.96
7.916
7.876
8
7.992
7.884
7.788
7.808
7.92
8.308
9.032
9.96
10.812
10.46
9.92
9.608
9.316
8.752
8.312
8.164
8.26
8.208
8.128
8.092
8.172
8.088
8.028
7.976
8.056
8.084
8.024
7.992
8.032
8.088
8.028
8.004
8.044
8.12
8.044
8.008
8.008
8.144
8.072
8.024
8.012
8.14
8.072
8.052
8.024
8.128
8.108
8.072
8.044
8.116
8.148
8.088
8.032
8.112
8.196
8.132
8.056
8.124
8.216
8.172
8.124
8.132
8.248
8.192
8.188
8.176
8.292
8.272
8.232
8.232
8.34
8.336
8.32
8.32
8.42
8.484
8.42
8.392
8.48
8.572
8.524
8.508
8.564
8.672
8.604
8.6
8.588
8.688
8.584
8.504
8.476
8.536
8.432
8.36
8.276
8.336
8.284
8.224
8.112
8.168
8.192
8.104
8.048
8.088
8.124
8.048
8.016
8.028
8.12
8.04
7.98
7.98
8.108
8.036
7.976
7.976
8.072
8.044
7.984
7.968
8.044
8.04
7.98
7.98
8.036
8.08
8.012
7.972
8.028
8.076
7.98
7.94
7.992
8.112
8.028
7.976
7.968
8.072
8.024
7.984
7.936
8.056
8.032
7.996
7.96
8.032
8.024
7.948
7.944
8.008
8.072
7.972
7.956
8
8.06
8.008
7.964
7.98
8.092
8.008
7.956
7.948
8.08
8.024
7.948
7.98
8.076
8.024
7.976
7.928
8.016
8.016
7.956
7.968
8.02
8.068
7.992
7.948
8
8.076
8
7.984
7.992
8.076
7.992
7.936
7.98
8.1
8.028
7.964
7.972
8.064
8.02
8
7.964
8.036
8.024
8.004
7.952
8.028
8.056
7.972
7.94
8.004
8.092
8.008
7.98
8
8.116
8.008
7.936
7.96
8.076
8.028
7.98
7.952
8.056
8.032
7.988
7.96
8.048
8.044
7.976
7.992
8.048
8.124
8.032
8.06
8.116
8.228
8.152
8.148
8.18
8.272
8.188
8.144
8.176
8.3
8.208
8.108
8.14
8.208
8.132
7.996
7.976
8.064
8.056
7.972
7.948
8.004
8.08
7.984
7.924
7.972
8.056
7.964
7.936
7.944
8.02
7.856
7.84
7.752
8.228
8.832
9.648
10.508
10.792
10.22
9.788
9.444
9.048
8.636
8.22
8.136
8.18
8.28
8.164
8.084
8.096
8.164
8.048
8
8.02
8.18
8.036
8.016
8.016
8.156
8.104
8.036
8.012
8.096
8.116
8.044
8.016
8.1
8.128
8.052
8.052
8.08
8.172
8.088
8.012
8.084
8.216
8.112
8.06
8.076
8.208
8.152
8.092
8.1
8.196
8.16
8.144
8.116
8.216
8.216
8.168
8.152
8.216
8.276
8.216
8.2
8.268
8.4
8.304
8.292
8.296
8.46
8.4
8.376
8.436
8.564
8.524
8.472
8.528
8.672
8.652
8.604
8.616
8.728
8.768
8.676
8.644
8.692
8.708
8.588
8.512
8.508
8.544
8.384
8.328
8.312
8.38
8.22
8.148
8.148
8.276
8.16
8.072
8.064
8.172
8.14
8.04
8.064
8.108
8.132
8.048
8.04
8.076
8.12
8.032
8
8.052
8.156
8.04
8.004
8.044
8.132
8.064
7.996
8.044
8.148
8.084
8.032
8.02
8.12
8.092
8.048
8.024
8.076
8.096
8.008
8
8.076
8.128
8.04
8.004
8.02
8.144
8.028
8.004
8.02
8.144
8.04
7.984
8.004
8.124
8.028
7.984
7.984
8.1
8.064
7.992
7.992
8.076
8.104
7.988
7.968
8.036
8.128
8.016
7.988
8.024
8.152
8.024
7.996
8.004
8.116
8.048
8.004
8.016
8.14
8.048
7.98
7.968
8.084
8.08
7.996
7.992
8.056
8.1
7.988
7.972
8.024
8.12
8.004
7.996
8.032
8.152
8.032
7.98
8.012
8.156
8.036
7.972
7.992
8.112
8.068
7.996
8
8.088
8.072
8.028
7.996
8.044
8.104
7.996
8.008
8.032
8.136
8.028
7.984
8.036
8.148
8.048
7.992
7.992
8.116
8.064
8.028
8.044
8.184
8.144
8.116
8.148
8.22
8.276
8.212
8.212
8.228
8.324
8.232
8.188
8.24
8.296
8.22
8.176
8.156
8.192
8.072
8.016
8.016
8.112
8.048
7.988
8.008
8.116
8.08
7.988
7.992
8.068
8.092
7.996
7.956
7.972
8.036
7.888
7.9
8.464
9.376
10.176
10.884
10.592
10.228
9.776
9.296
8.856
8.54
8.292
8.212
8.216
8.312
8.272
8.164
8.128
8.164
8.2
8.092
8.06
8.116
8.188
8.08
8.092
8.108
8.228
8.112
8.104
8.112
8.24
8.112
8.064
8.084
8.196
8.168
8.076
8.108
8.18
8.176
8.136
8.112
8.14
8.196
8.12
8.156
8.18
8.268
8.184
8.16
8.192
8.34
8.2
8.172
8.204
8.34
8.272
8.228
8.26
8.38
8.32
8.276
8.3
8.392
8.404
8.34
8.384
8.456
8.536
8.452
8.46
8.548
8.656
8.596
8.588
8.64
8.772
8.708
8.696
8.724
8.852
8.764
8.704
8.704
8.748
8.668
8.544
8.512
8.536
8.512
8.36
8.3
8.304
8.336
8.24
8.18
8.188
8.26
8.144
8.128
8.112
8.256
8.132
8.084
8.096
8.224
8.112
8.056
8.084
8.18
8.156
8.088
8.092
8.136
8.16
8.06
8.068
8.124
8.18
8.1
8.08
8.112
8.212
8.096
8.04
8.1
8.208
8.108
8.052
8.08
8.188
8.136
8.056
8.072
8.164
8.12
8.044
8.068
8.124
8.156
8.068
8.044
8.108
8.164
8.092
8.036
8.104
8.208
8.072
8.044
8.068
8.204
8.112
8.064
8.076
8.168
8.096
8.06
8.06
8.172
8.136
8.084
8.076
8.136
8.132
8.064
8.044
8.1
8.192
8.076
8.056
8.072
8.184
8.068
8.04
8.076
8.172
8.108
8.06
8.1
8.188
8.104
8.056
8.076
8.152
8.136
8.064
8.076
8.128
8.14
8.088
8.076
8.1
8.176
8.088
8.076
8.116
8.18
8.06
8.06
8.092
8.204
8.112
8.072
8.088
8.192
8.128
8.072
8.104
8.16
8.132
8.076
8.08
8.112
8.136
8.076
8.064
8.1
8.176
8.056
8.068
8.116
8.212
8.088
8.028
8.088
8.192
8.12
8.056
8.104
8.208
8.156
8.156
8.176
8.256
8.248
8.212
8.24
8.308
8.364
8.292
8.252
8.32
8.368
8.288
8.22
8.264
8.356
8.212
8.152
8.136
8.224
8.092
8.064
8.072
8.168
8.112
8.048
8.068
8.136
8.12
8.056
8.056
8.116
8.144
8.044
7.952
8.024
8
8.108
8.728
9.648
10.644
10.904
10.332
9.972
9.692
9.12
8.64
8.356
8.404
8.344
8.248
8.236
8.308
8.264
8.14
8.144
8.184
8.228
8.116
8.112
8.172
8.212
8.116
8.112
8.172
8.256
8.112
8.116
8.148
8.256
8.16
8.108
8.144
8.24
8.164
8.148
8.144
8.244
8.228
8.144
8.164
8.244
8.276
8.164
8.152
8.22
8.316
8.204
8.196
8.248
8.364
8.264
8.228
8.264
8.372
8.28
8.26
8.312
8.416
8.348
8.3
8.324
8.448
8.444
8.392
8.412
8.52
8.6
8.516
8.492
8.6
8.668
8.628
8.628
8.692
8.8
8.724
8.712
8.752
8.868
8.736
8.672
8.644
8.724
8.62
8.492
8.436
8.472
8.424
8.296
8.272
8.308
8.328
8.196
8.176
8.196
8.264
8.132
8.108
8.144
8.252
8.128
8.08
8.116
8.22
8.116
8.072
8.088
8.164
8.136
8.064
8.08
8.124
8.12
8.052
8.06
8.116
8.176
8.036
8.044
8.116
8.204
8.052
8.02
8.084
8.2
8.064
8.028
8.076
8.168
8.072
8.04
8.048
8.16
8.1
8.044
8.024
8.092
8.104
8.024
8.008
8.088
8.172
8.048
7.996
8.032
8.14
8.052
8.016
8.032
8.168
8.056
8.016
8.052
8.144
8.064
8.008
8.02
8.12
8.072
8.008
8.004
8.08
8.096
7.988
7.976
8.032
8.116
8.016
7.968
8.044
8.108
8.008
7.984
8.064
8.14
8.032
7.992
8.048
8.128
8.068
7.976
8.02
8.104
8.08
8.008
7.988
8.064
8.096
8
7.988
8.032
8.096
7.988
8
8.04
8.14
8.032
8
8.028
8.156
8.024
8.008
8.008
8.088
8.064
8.008
8.012
8.096
8.06
8.012
8.004
8.056
8.104
7.992
7.988
8.048
8.12
8.004
7.96
8.02
8.124
8.008
7.992
8.008
8.116
7.992
8.008
8.02
8.096
8.032
7.984
7.972
8.088
8.076
8.016
8.068
8.128
8.192
8.104
8.104
8.192
8.288
8.208
8.164
8.24
8.332
8.192
8.16
8.156
8.232
8.136
8.096
8.06
8.112
8.032
7.996
7.96
8.04
8.052
7.972
7.968
8.012
8.036
7.948
7.96
7.984
8.084
7.944
7.868
7.924
7.948
7.88
8.364
9.18
10.2
10.776
10.384
9.912
9.692
9.244
8.752
8.336
8.26
8.232
8.152
8.168
8.172
8.184
8.032
8.016
8.06
8.14
8.004
8.028
8.024
8.144
8.012
7.996
8.016
8.16
8.056
7.992
8.036
8.108
8.068
8
8.028
8.132
8.1
8.004
8.04
8.1
8.148
8.052
8.032
8.088
8.184
8.072
8.032
8.1
8.176
8.08
8.068
8.112
8.228
8.108
8.096
8.144
8.264
8.18
8.136
8.164
8.248
8.24
8.184
8.204
8.3
8.38
8.296
8.296
8.372
8.484
8.4
8.404
8.496
8.62
8.532
8.472
8.588
8.704
8.64
8.588
8.624
8.74
8.68
8.6
8.608
8.628
8.564
8.416
8.364
8.372
8.4
8.236
8.192
8.212
8.264
8.096
8.04
8.052
8.2
8.076
8.02
8.064
8.136
8.016
7.972
7.984
8.088
8.016
7.98
7.984
8.08
8.076
7.988
7.976
8.052
8.124
8
7.964
7.992
8.1
7.996
7.956
8.008
8.152
8
7.96
8
8.088
8.004
7.936
7.956
8.108
8.04
7.968
7.944
8.048
8.056
7.96
7.952
8.032
8.092
7.972
7.952
7.984
8.108
7.964
7.952
7.972
8.112
7.964
7.94
7.976
8.08
8
7.936
7.964
8.064
8.028
7.956
7.952
8.032
8.016
7.944
7.964
7.988
8.076
7.96
7.964
8.024
8.132
7.956
7.944
7.968
8.108
7.984
7.916
7.968
8.08
8
7.964
7.948
8.04
7.992
7.96
7.976
8.032
8.036
7.944
7.944
8.004
8.072
7.968
7.952
7.992
8.096
7.964
7.952
7.984
8.14
7.992
7.972
7.996
8.088
7.996
7.948
7.972
8.064
8.028
7.956
7.968
8.036
8.068
7.948
7.956
7.984
8.1
7.956
7.976
8.004
8.104
7.972
7.952
7.988
8.08
7.98
7.964
8.024
8.14
8.072
8.02
8.076
8.172
8.18
8.152
8.176
8.244
8.28
8.168
8.172
8.208
8.288
8.144
8.132
8.176
8.208
8.036
7.98
8.012
8.12
7.984
7.952
7.98
8.064
7.988
7.944
7.924
8.016
8.028
7.96
7.964
8.016
8.016
7.848
7.828
7.856
8.308
8.892
9.8
10.748
10.944
10.236
9.808
9.496
9.136
8.592
8.236
8.172
8.264
8.192
8.12
8.1
8.176
8.104
8.02
8.044
8.072
8.124
8.004
8.012
8.076
8.136
8.02
8.008
8.044
8.172
8.024
8.02
8.044
8.168
8.052
8.024
8.068
8.152
8.1
8.048
8.092
8.164
8.136
8.056
8.088
8.136
8.224
8.116
8.1
8.152
8.224
8.128
8.124
8.192
8.284
8.172
8.164
8.244
8.324
8.232
8.216
8.256
8.34
8.328
8.292
8.32
8.416
8.44
8.412
8.44
8.496
8.556
8.484
8.496
8.604
8.696
8.596
8.62
8.704
8.836
8.728
8.676
8.692
8.776
8.644
8.588
8.568
8.568
8.488
8.36
8.352
8.34
8.332
8.2
8.2
8.228
8.228
8.104
8.08
8.112
8.2
8.088
8.056
8.088
8.172
8.032
8.02
8.064
8.14
8.056
8.012
8.06
8.12
8.068
8.032
8.052
8.136
8.108
8.032
8.028
8.12
8.156
8.028
8.052
8.06
8.164
8.056
8.052
8.084
8.148
8.06
8.024
8.056
8.152
8.06
8
8.032
8.132
8.096
8.016
8.016
8.084
8.112
8.02
8.036
8.096
8.148
8.012
8.036
8.076
8.132
7.996
8.008
8.072
8.152
8.02
8.008
8.032
8.116
8.068
8.004
7.996
8.084
8.096
8.02
8.028
8.072
8.092
7.992
8.012
8.072
8.144
8.024
8.004
8.08
8.144
8.02
8.008
8.052
8.132
8.032
8.004
8.044
8.124
8.012
7.984
8.044
8.104
8.044
7.984
8.004
8.064
8.108
8
7.98
8.044
8.152
8.012
8.008
8.068
8.136
8.02
8.02
8.032
8.136
8.04
8
8.056
8.104
8.036
7.984
8.028
8.1
8.104
8
8.004
8.048
8.092
8
8.008
8.068
8.14
8
8.008
8.076
8.148
7.98
7.996
8.056
8.128
8.028
7.98
8.016
8.092
8.06
7.988
8.008
8.084
8.104
8.06
8.092
8.152
8.2
8.112
8.124
8.248
8.292
8.188
8.184
8.236
8.344
8.184
8.156
8.176
8.272
8.18
8.064
8.06
8.108
8.048
7.984
8.004
8.036
8.052
7.96
7.988
8.044
8.076
7.96
7.968
8.012
8.104
7.96
7.904
7.884
7.952
7.84
8.276
9.068
10.092
10.836
10.676
10.156
9.852
9.348
8.812
8.448
8.328
8.332
8.188
8.196
8.204
8.22
8.08
8.04
8.088
8.168
8.048
8.02
8.08
8.148
8.032
8.012
8.084
8.14
8.064
8.02
8.056
8.124
8.1
8.02
8.04
8.096
8.14
8.04
8.04
8.112
8.16
8.06
8.044
8.144
8.196
8.08
8.064
8.156
8.236
8.108
8.104
8.108
8.252
8.176
8.148
8.188
8.256
8.208
8.184
8.212
8.288
8.304
8.228
8.28
8.344
8.412
8.316
8.352
8.424
8.532
8.404
8.436
8.536
8.644
8.536
8.552
8.652
8.7
8.668
8.656
8.712
8.772
8.728
8.628
8.616
8.648
8.624
8.46
8.436
8.432
8.404
8.272
8.248
8.256
8.292
8.128
8.12
8.148
8.188
8.08
8.06
8.084
8.172
8.068
8.012
8.04
8.132
8.08
7.956
8.028
8.084
8.112
7.972
7.992
8.064
8.132
8.004
8.012
8.064
8.12
7.984
7.996
8.048
8.108
8
7.98
8.012
8.12
8.036
7.992
8.028
8.076
8.06
7.988
8.024
8.088
8.096
7.972
8.004
8.072
8.12
7.992
7.992
8.056
8.14
7.972
7.972
8.04
8.12
8.024
7.976
8.016
8.088
8.016
7.948
8.016
8.064
8.024
7.952
7.976
8.056
8.088
7.964
7.976
8.028
8.12
7.956
7.976
8.016
8.096
7.956
7.976
8.012
8.08
7.984
7.956
7.976
8.052
7.988
7.928
7.984
8.064
8.028
7.932
7.968
8.036
8.064
7.94
7.956
8.048
8.084
7.932
7.948
8
8.088
7.96
7.956
8.008
8.112
7.984
7.94
7.98
8.084
8.016
7.944
7.988
8.08
8.012
7.912
7.972
8.084
8.072
7.92
7.98
8.052
8.1
7.964
7.964
8.036
8.12
7.98
7.936
7.984
8.104
8
7.936
7.976
8.084
8.004
7.948
7.98
8.08
8.036
7.948
7.988
8.08
8.052
7.952
7.964
8.064
8.104
7.968
8.008
8.092
8.192
8.056
8.088
8.152
8.28
8.148
8.144
8.192
8.288
8.208
8.128
8.196
8.252
8.184
8.052
8.076
8.112
8.08
7.952
7.98
8.012
8.084
7.936
7.952
7.96
8.068
7.936
7.924
7.976
8.064
7.936
7.908
7.924
7.976
7.876
7.744
7.976
8.616
9.472
10.312
10.82
10.324
9.916
9.46
9.032
8.656
8.388
8.18
8.172
8.204
8.248
8.052
8.012
8.056
8.144
8.012
7.976
8.016
8.104
8.036
7.98
8.036
8.096
8.068
7.94
8.008
8.088
8.12
7.988
7.972
8.072
8.124
7.98
8.008
8.06
8.144
8.008
7.996
8.06
8.148
8.052
8.036
8.088
8.152
8.116
8.036
8.076
8.204
8.188
8.06
8.116
8.192
8.252
8.132
8.144
8.208
8.304
8.18
8.192
8.236
8.352
8.24
8.232
8.332
8.424
8.348
8.316
8.408
8.528
8.52
8.444
8.516
8.628
8.636
8.552
8.6
8.684
8.736
8.58
8.616
8.64
8.688
8.488
8.452
8.468
8.512
8.312
8.228
8.256
8.336
8.148
8.084
8.104
8.168
8.092
8.036
8.036
8.108
8.092
7.94
7.984
8.056
8.104
7.952
7.964
8
8.092
7.952
7.952
8.02
8.112
7.98
7.952
8
8.072
7.988
7.948
7.996
8.076
8.04
7.948
8.012
8.088
8.072
7.948
7.984
8.056
8.096
7.94
7.952
8.02
8.108
7.952
7.964
8.016
8.088
7.968
7.936
8.012
8.08
7.984
7.936
7.984
8.1
8.036
7.912
7.956
8.036
8.052
7.948
7.976
8.016
8.088
7.916
7.928
8.008
8.096
7.96
7.936
8
8.112
7.968
7.944
7.992
8.08
8.004
7.904
7.964
8.064
8.036
7.928
7.972
8.04
8.036
7.924
7.976
8.04
8.072
7.936
7.968
8.048
8.108
7.968
7.952
7.996
8.088
7.972
7.972
8.008
8.108
8.012
7.968
7.992
8.056
8.048
7.936
8.016
8.092
8.096
7.936
7.968
8.076
8.108
7.956
7.96
7.988
8.112
7.988
7.968
8.028
8.076
8.008
7.972
8.032
8.1
7.996
7.944
8.036
8.104
8.056
7.968
8
8.076
8.108
7.956
7.988
8.072
8.124
7.968
7.984
8.032
8.104
7.964
7.988
8.088
8.168
8.112
8.08
8.176
8.268
8.224
8.168
8.2
8.26
8.252
8.176
8.2
8.244
8.24
8.104
8.152
8.144
8.132
7.956
7.988
8.052
8.112
7.94
7.936
7.988
8.092
8.008
7.948
7.968
8.084
8.008
7.916
7.968
7.984
7.94
7.812
7.84
8.344
9.08
9.868
10.724
10.716
10.224
9.708
9.388
8.948
8.608
8.244
8.188
8.212
8.292
8.172
8.092
8.112
8.168
8.104
8.008
8.044
8.132
8.14
8.004
8.044
8.1
8.148
8.012
8.012
8.092
8.168
8.032
8.036
8.092
8.18
8.076
8.052
8.108
8.184
8.104
8.04
8.104
8.204
8.16
8.048
8.136
8.196
8.192
8.088
8.128
8.232
8.276
8.164
8.2
8.268
8.332
8.2
8.204
8.264
8.356
8.26
8.248
8.3
8.452
8.376
8.3
8.392
8.5
8.5
8.424
8.484
8.576
8.636
8.556
8.612
8.7
8.764
8.648
8.708
8.792
8.868
8.704
8.716
8.728
8.784
8.64
8.568
8.552
8.544
8.448
8.34
8.368
8.38
8.312
8.164
8.192
8.24
8.22
8.084
8.116
8.152
8.208
8.044
8.052
8.116
8.176
8.044
8.036
8.1
8.168
8.056
8.04
8.068
8.112
8.08
8.02
8.072
8.176
8.132
8.02
8.052
8.136
8.148
8
8.052
8.128
8.156
8.044
8.068
8.076
8.156
8.032
8.056
8.1
8.164
8.044
8.024
8.064
8.156
8.08
8.004
8.072
8.152
8.108
8.012
8.048
8.136
8.132
8.008
8.06
8.12
8.14
8.012
8.032
8.104
8.176
8.028
8.032
8.068
8.18
8.076
8.02
8.076
8.156
8.072
8.024
8.092
8.16
8.112
8
8.084
8.148
8.14
8.008
8.044
8.132
8.184
8.028
8.056
8.092
8.172
8.06
8.052
8.08
8.168
8.092
8.032
8.116
8.172
8.088
8.012
8.096
8.188
8.132
8.016
8.096
8.144
8.172
8.04
8.068
8.124
8.196
8.044
8.084
8.124
8.196
8.044
8.04
8.104
8.192
8.084
8.044
8.124
8.184
8.12
8.024
8.088
8.164
8.152
8.028
8.08
8.128
8.164
8.032
8.084
8.144
8.18
8.044
8.084
8.152
8.184
8.068
8.06
8.108
8.172
8.104
8.092
8.176
8.236
8.228
8.152
8.244
8.328
8.336
8.216
8.288
8.368
8.376
8.232
8.272
8.308
8.348
8.232
8.22
8.188
8.2
8.084
8.08
8.116
8.164
8.084
8.048
8.068
8.14
8.088
7.992
8.1
8.16
8.116
8.024
8.06
8.064
8.064
7.872
7.98
8.56
9.432
10.256
11
10.688
10.224
9.752
9.344
8.904
8.588
8.372
8.28
8.324
8.348
8.284
8.168
8.184
8.208
8.232
8.076
8.128
8.188
8.2
8.084
8.1
8.144
8.204
8.084
8.116
8.176
8.216
8.068
8.1
8.148
8.22
8.144
8.064
8.132
8.196
8.176
8.096
8.152
8.22
8.204
8.116
8.192
8.224
8.26
8.144
8.18
8.24
8.3
8.192
8.196
8.26
8.328
8.244
8.204
8.292
8.356
8.316
8.292
8.36
8.436
8.412
8.336
8.424
8.504
8.532
8.428
8.5
8.6
8.672
8.572
8.604
8.696
8.752
8.676
8.724
8.772
8.836
8.74
8.724
8.76
8.748
8.66
8.556
8.564
8.58
8.472
8.356
8.36
8.38
8.328
8.16
8.204
8.256
8.248
8.116
8.124
8.168
8.188
8.072
8.092
8.136
8.144
8.084
8.056
8.124
8.148
8.12
8.028
8.108
8.16
8.144
8.048
8.104
8.144
8.16
8.04
8.08
8.156
8.168
8.04
8.072
8.124
8.176
8.048
8.056
8.128
8.164
8.072
8.048
8.104
8.132
8.084
8.044
8.096
8.128
8.112
8.008
8.088
8.136
8.124
7.988
8.02
8.1
8.152
7.996
8.024
8.084
8.12
8.032
8.024
8.06
8.12
8.056
8.016
8.064
8.108
8.056
7.988
8.064
8.104
8.088
7.988
8.06
8.108
8.124
7.996
8.024
8.096
8.144
8.028
8.032
8.072
8.116
8.02
8.016
8.052
8.104
8.02
8.012
8.072
8.1
8.052
7.996
8.032
8.104
8.092
7.972
8.032
8.084
8.1
8
8.032
8.084
8.12
7.988
8.04
8.08
8.132
8.02
7.984
8.072
8.136
8.064
7.984
8.036
8.108
8.088
8.02
8.048
8.104
8.084
7.996
8.052
8.076
8.12
7.98
8.032
8.104
8.128
7.984
8.016
8.08
8.108
8.028
8.02
8.084
8.132
8.052
8.028
8.08
8.124
8.088
8.008
8.056
8.124
8.136
8.04
8.116
8.184
8.236
8.112
8.184
8.268
8.312
8.216
8.22
8.272
8.32
8.24
8.228
8.244
8.284
8.196
8.124
8.108
8.144
8.116
8.024
8.056
8.124
8.096
8.004
8.04
8.084
8.124
7.984
8.008
8.056
8.12
8.008
7.992
7.96
8.004
7.844
8.08
8.756
9.72
10.556
10.796
10.304
9.944
9.576
9.004
8.644
8.428
8.376
8.256
8.26
8.236
8.252
8.104
8.128
8.148
8.176
8.064
8.064
8.12
8.168
8.056
8.032
8.116
8.168
8.104
8.064
8.1
8.148
8.128
8.032
8.124
8.144
8.16
8.04
8.112
8.152
8.192
8.068
8.116
8.14
8.232
8.104
8.12
8.184
8.228
8.148
8.156
8.212
8.244
8.192
8.168
8.22
8.28
8.268
8.176
8.264
8.316
8.348
8.228
8.308
8.352
8.432
8.32
8.38
8.44
8.496
8.416
8.468
8.556
8.584
8.548
8.532
8.664
8.712
8.704
8.66
8.752
8.74
8.784
8.66
8.696
8.72
8.668
8.532
8.5
8.472
8.496
8.332
8.332
8.332
8.316
8.188
8.176
8.196
8.212
8.14
8.092
8.136
8.156
8.104
8.044
8.092
8.156
8.156
8.052
8.108
8.12
8.152
8.04
8.072
8.124
8.16
8.044
8.056
8.104
8.172
8.064
8.064
8.108
8.16
8.044
8.06
8.076
8.136
8.112
8.052
8.116
8.144
8.136
8.028
8.064
8.104
8.132
8.004
8.04
8.088
8.14
8.016
8.044
8.088
8.124
8.028
8.024
8.048
8.108
8.004
8.012
8.084
8.08
8.084
7.964
8.02
8.068
8.104
7.984
8.028
8.096
8.116
7.976
8.008
8.052
8.088
7.988
7.992
8.044
8.092
7.976
7.984
8.064
8.1
8.012
7.98
8.04
8.06
8.052
7.956
8.008
8.064
8.048
7.952
8.032
8.052
8.088
7.964
8.056
8.052
8.052
7.936
7.992
8.06
8.088
7.988
7.98
8.02
8.052
8.028
7.976
8.04
8.076
8.032
7.992
8.032
8.044
8.068
7.936
8.028
8.052
8.1
7.972
7.992
8.04
8.096
7.984
7.992
8.04
8.076
8.02
7.976
8.056
8.068
8.024
7.964
8.04
8.064
8.044
7.96
8.02
8.048
8.052
7.94
8
8.016
8.076
7.932
8.004
8.068
8.136
8.04
8.1
8.16
8.188
8.128
8.156
8.236
8.256
8.192
8.132
8.236
8.256
8.232
8.112
8.172
8.196
8.144
7.972
8.036
8.044
8.056
7.94
8.004
8.04
8.06
7.956
7.944
8.012
8.032
7.964
7.94
7.992
8.032
7.92
7.836
7.876
7.908
8.408
9.072
10.048
10.836
10.608
9.968
9.712
9.36
8.928
8.392
8.22
8.248
8.276
8.16
8.148
8.152
8.14
8.068
8.036
8.088
8.084
8.04
8.008
8.076
8.092
8.104
8
8.064
8.084
8.124
7.98
8.068
8.088
8.124
8.024
8.068
8.072
8.112
8.056
8.084
8.12
8.136
8.068
8.068
8.12
8.172
8.124
8.076
8.148
8.168
8.176
8.088
8.176
8.196
8.26
8.148
8.212
8.236
8.264
8.196
8.248
8.28
8.348
8.276
8.3
8.392
8.42
8.388
8.36
8.464
8.512
8.5
8.48
8.56
8.62
8.668
8.596
8.66
8.696
8.776
8.668
8.704
8.744
8.752
8.624
8.584
8.6
8.556
8.428
8.392
8.388
8.372
8.264
8.216
8.204
8.212
8.16
8.072
8.12
8.144
8.132
8.012
8.052
8.096
8.104
7.972
8.032
8.068
8.1
7.976
8.032
8.06
8.084
7.976
7.988
8.052
8.092
8.016
8.004
8.064
8.072
8.056
7.972
8.04
8.052
8.076
8
8.04
8.06
8.096
7.968
8.016
8.04
8.044
7.964
7.996
8.02
8.064
7.972
7.992
8.036
8.072
8.04
7.932
8.016
8.06
8.052
7.976
8.044
8.052
8.048
7.932
8
8.04
8.064
7.936
8.004
8.032
8.08
7.968
7.98
8.056
8.064
7.98
7.992
8.04
8.044
8.012
7.956
8.012
8.028
8.044
7.968
8.024
8.024
8.064
7.956
8.008
8.028
8.06
7.96
8.008
8.028
8.06
7.964
7.992
8.024
8.04
8.016
7.992
8.048
8.056
8.016
7.988
8.048
8.064
8.064
7.956
8.032
8.052
8.076
7.944
8.032
8.048
8.088
7.968
8.016
8.032
8.056
7.968
8.004
8.02
8.02
7.968
8
8.044
8.084
8.016
7.98
8.04
8.068
8.06
7.964
8.044
8.064
8.104
8.032
8.096
8.136
8.188
8.1
8.144
8.204
8.24
8.184
8.212
8.264
8.28
8.228
8.204
8.208
8.216
8.224
8.14
8.104
8.068
8.08
8.02
8.056
8.02
8.08
7.992
8.016
8.02
8.06
7.948
7.992
8.044
8.06
7.976
7.972
7.96
7.948
7.86
7.964
8.592
9.432
10.4
10.92
10.508
10.02
9.7
9.188
8.8
8.452
8.352
8.252
8.276
8.268
8.244
8.12
8.128
8.156
8.132
8.08
8.088
8.12
8.14
8.104
8.088
8.136
8.136
8.124
8.064
8.136
8.136
8.148
8.072
8.104
8.128
8.168
8.068
8.112
8.156
8.184
8.088
8.14
8.172
8.18
8.1
8.14
8.204
8.204
8.16
8.16
8.216
8.244
8.228
8.18
8.236
8.268
8.28
8.224
8.304
8.308
8.364
8.268
8.332
8.356
8.432
8.376
8.432
8.488
8.52
8.476
8.516
8.584
8.608
8.608
8.616
8.716
8.716
8.76
8.732
8.784
8.796
8.812
8.724
8.728
8.712
8.7
8.532
8.536
8.52
8.504
8.388
8.328
8.328
8.336
8.244
8.212
8.232
8.188
8.164
8.112
8.18
8.164
8.152
8.076
8.144
8.152
8.156
8.076
8.112
8.124
8.16
8.092
8.112
8.14
8.148
8.08
8.108
8.136
8.16
8.084
8.104
8.136
8.148
8.084
8.064
8.14
8.14
8.14
8.048
8.136
8.096
8.144
8.068
8.12
8.128
8.14
8.056
8.096
8.12
8.136
8.056
8.096
8.128
8.112
8.076
8.056
8.088
8.128
8.088
8.056
8.112
8.096
8.14
8.06
8.084
8.088
8.124
8.032
8.076
8.068
8.112
8.02
8.084
8.092
8.092
8.044
8.06
8.088
8.096
8.056
8.036
8.064
8.072
8.084
8.052
8.112
8.08
8.112
8.036
8.108
8.104
8.116
8.032
8.088
8.088
8.12
8.032
8.088
8.076
8.12
8.072
8.084
8.104
8.104
8.072
8.068
8.096
8.088
8.088
8.048
8.104
8.124
8.124
8.044
8.12
8.124
8.136
8.048
8.108
8.096
8.12
8.068
8.12
8.096
8.124
8.056
8.092
8.132
8.128
8.104
8.08
8.14
8.12
8.124
8.076
8.116
8.12
8.14
8.076
8.132
8.116
8.168
8.064
8.128
8.148
8.18
8.136
8.2
8.236
8.28
8.208
8.26
8.312
8.308
8.292
8.276
8.34
8.336
8.308
8.232
8.284
8.244
8.22
8.084
8.14
8.144
8.148
8.032
8.112
8.104
8.108
8.04
8.056
8.1
8.108
8.052
8.08
8.104
8.064
8
7.98
7.964
8.02
8.504
9.276
10.26
10.968
10.632
10.012
9.712
9.304
8.904
8.464
8.396
8.364
8.392
8.256
8.236
8.248
8.232
8.14
8.156
8.18
8.188
8.18
8.136
8.164
8.188
8.18
8.116
8.164
8.176
8.22
8.116
8.184
8.16
8.176
8.116
8.192
8.164
8.18
8.14
8.152
8.192
8.192
8.164
8.188
8.204
8.232
8.22
8.18
8.24
8.216
8.26
8.204
8.268
8.26
8.292
8.252
8.308
8.296
8.336
8.3
8.384
8.368
8.396
8.352
8.392
8.444
8.48
8.456
8.484
8.564
8.58
8.584
8.58
8.668
8.684
8.724
8.684
8.784
8.792
8.816
8.724
8.784
8.804
8.812
8.708
8.72
8.676
8.64
8.56
8.508
8.468
8.424
8.36
8.344
8.336
8.288
8.244
8.212
8.236
8.216
8.212
8.148
8.192
8.18
8.2
8.128
8.196
8.164
8.188
8.108
8.144
8.16
8.144
8.108
8.148
8.192
8.164
8.132
8.124
8.184
8.18
8.152
8.108
8.196
8.176
8.184
8.104
8.168
8.136
8.18
8.1
8.172
8.136
8.172
8.108
8.152
8.148
8.156
8.096
8.116
8.148
8.152
8.116
8.108
8.124
8.128
8.136
8.088
8.116
8.112
8.144
8.096
8.124
8.12
8.148
8.068
8.14
8.104
8.144
8.06
8.12
8.12
8.148
8.068
8.088
8.104
8.12
8.1
8.104
8.14
8.128
8.128
8.068
8.116
8.1
8.096
8.052
8.116
8.12
8.12
8.064
8.132
8.096
8.132
8.076
8.112
8.128
8.144
8.084
8.092
8.12
8.116
8.096
8.092
8.104
8.104
8.1
8.056
8.116
8.092
8.144
8.068
8.12
8.1
8.152
8.084
8.136
8.1
8.112
8.08
8.096
8.108
8.12
8.108
8.096
8.128
8.112
8.092
8.08
8.116
8.124
8.132
8.096
8.096
8.1
8.132
8.088
8.128
8.088
8.12
8.096
8.184
8.176
8.216
8.168
8.244
8.26
8.304
8.276
8.3
8.276
8.324
8.336
8.292
8.3
8.244
8.248
8.192
8.196
8.108
8.124
8.056
8.124
8.088
8.128
8.052
8.08
8.064
8.076
8.024
8.06
8.072
8.092
8.072
8.052
8.016
7.96
7.924
7.94
8.496
9.256
10.144
10.8
10.516
9.988
9.7
9.24
8.872
8.456
8.332
8.276
8.308
8.248
8.224
8.176
8.168
8.136
8.16
8.104
8.12
8.116
8.152
8.116
8.092
8.156
8.124
8.136
8.088
8.164
8.116
8.152
8.104
8.168
8.116
8.168
8.096
8.148
8.148
8.136
8.132
8.16
8.16
8.192
8.16
8.176
8.196
8.188
8.224
8.168
8.248
8.184
8.248
8.2
8.272
8.232
8.288
8.248
8.336
8.324
8.336
8.3
8.36
8.372
8.404
8.376
8.428
8.456
8.512
8.548
8.548
8.592
8.6
8.664
8.664
8.732
8.728
8.764
8.732
8.8
8.808
8.84
8.756
8.772
8.72
8.7
8.616
8.588
8.536
8.488
8.4
8.392
8.36
8.332
8.28
8.236
8.264
8.204
8.196
8.156
8.192
8.18
8.204
8.124
8.176
8.144
8.172
8.108
8.164
8.148
8.14
8.116
8.144
8.132
8.14
8.124
8.148
8.14
8.132
8.148
8.112
8.152
8.116
8.148
8.12
8.148
8.156
8.16
8.128
8.144
8.116
8.168
8.088
8.148
8.128
8.14
8.108
8.16
8.148
8.148
8.088
8.108
8.12
8.104
8.112
8.104
8.112
8.116
8.116
8.096
8.144
8.12
8.116
8.064
8.128
8.128
8.128
8.048
8.112
8.092
8.112
8.072
8.096
8.092
8.092
8.08
8.112
8.12
8.104
8.12
8.08
8.132
8.088
8.124
8.08
8.128
8.108
8.124
8.052
8.132
8.096
8.116
8.076
8.112
8.084
8.108
8.068
8.096
8.1
8.088
8.064
8.044
8.1
8.092
8.112
8.12
8.124
8.104
8.112
8.064
8.124
8.092
8.124
8.092
8.132
8.072
8.1
8.08
8.132
8.104
8.1
8.068
8.1
8.108
8.108
8.084
8.08
8.104
8.1
8.124
8.092
8.112
8.092
8.088
8.088
8.112
8.08
8.14
8.112
8.212
8.164
8.184
8.164
8.256
8.248
8.3
8.284
8.316
8.304
8.328
8.304
8.308
8.316
8.264
8.248
8.256
8.24
8.124
8.152
8.084
8.136
8.112
8.152
8.068
8.112
8.092
8.1
8.068
8.088
8.08
8.076
8.076
8.08
8.024
8
7.932
7.912
8.404
9.144
10.08
10.892
10.792
10.232
9.888
9.512
9.068
8.612
8.356
8.284
8.32
8.28
8.284
8.212
8.208
8.164
8.144
8.136
8.16
8.14
8.128
8.124
8.144
8.16
8.132
8.14
8.12
8.156
8.128
8.144
8.096
8.18
8.108
8.144
8.108
8.168
8.144
8.168
8.128
8.184
8.18
8.176
8.136
8.2
8.192
8.212
8.212
8.192
8.236
8.2
8.256
8.216
8.272
8.236
8.308
8.248
8.296
8.288
8.308
8.308
8.356
8.344
8.4
8.388
8.424
8.452
8.488
8.54
8.552
8.576
8.592
8.632
8.656
8.696
8.672
8.752
8.744
8.816
8.772
8.792
8.736
8.744
8.692
8.68
8.604
8.604
8.516
8.472
8.424
8.388
8.328
8.292
8.252
8.244
8.204
8.188
8.172
8.152
8.176
8.132
8.156
8.12
8.14
8.096
8.164
8.104
8.152
8.1
8.136
8.092
8.132
8.108
8.144
8.104
8.128
8.124
8.144
8.136
8.1
8.128
8.132
8.132
8.1
8.116
8.096
8.164
8.116
8.16
8.096
8.116
8.08
8.152
8.08
8.084
8.072
8.148
8.088
8.116
8.084
8.108
8.076
8.096
8.112
8.108
8.088
8.06
8.1
8.1
8.116
8.08
8.116
8.072
8.108
8.064
8.112
8.072
8.1
8.064
8.1
8.072
8.108
8.056
8.072
8.048
8.1
8.08
8.084
8.088
8.088
8.084
8.072
8.1
8.048
8.1
8.068
8.12
8.056
8.104
8.056
8.096
8.072
8.104
8.052
8.068
8.076
8.112
8.056
8.064
8.1
8.108
8.076
8.08
8.092
8.072
8.096
8.084
8.092
8.096
8.124
8.056
8.14
8.08
8.096
8.052
8.1
8.088
8.136
8.068
8.084
8.06
8.096
8.072
8.088
8.096
8.1
8.096
8.072
8.108
8.092
8.08
8.064
8.128
8.1
8.112
8.06
8.12
8.088
8.12
8.08
8.14
8.136
8.18
8.164
8.188
8.188
8.244
8.232
8.28
8.272
8.28
8.268
8.268
8.288
8.252
8.244
8.216
8.216
8.16
8.136
8.072
8.108
8.06
8.072
8.064
8.088
8.048
8.084
8.028
8.064
8.064
8.064
8.044
8.024
8.016
8
7.968
7.896
7.988
8.5
9.324
10.252
10.988
10.528
10.036
9.672
9.284
8.812
8.452
8.296
8.336
8.264
8.28
8.188
8.196
8.124
8.148
8.124
8.112
8.108
8.12
8.128
8.124
8.144
8.096
8.112
8.088
8.124
8.104
8.14
8.084
8.156
8.128
8.152
8.088
8.124
8.092
8.14
8.124
8.148
8.116
8.152
8.132
8.144
8.164
8.18
8.152
8.156
8.212
8.204
8.208
8.176
8.228
8.204
8.264
8.244
8.276
8.252
8.288
8.276
8.32
8.316
8.372
8.328
8.392
8.408
8.436
8.436
8.476
8.52
8.568
8.58
8.58
8.648
8.644
8.692
8.676
8.756
8.724
8.776
8.716
8.764
8.716
8.696
8.6
8.592
8.524
8.52
8.436
8.392
8.348
8.324
8.248
8.236
8.228
8.196
8.168
8.16
8.172
8.136
8.12
8.096
8.136
8.08
8.124
8.076
8.14
8.1
8.116
8.08
8.116
8.092
8.116
8.076
8.112
8.12
8.1
8.092
8.104
8.132
8.116
8.096
8.088
8.152
8.112
8.116
8.068
8.116
8.108
8.12
8.072
8.108
8.088
8.12
8.056
8.096
8.1
8.104
8.072
8.092
8.1
8.092
8.08
8.056
8.096
8.092
8.084
8.044
8.112
8.064
8.096
8.048
8.08
8.064
8.068
8.02
8.1
8.056
8.052
8.028
8.076
8.056
8.072
8.044
8.028
8.056
8.096
8.056
8.02
8.084
8.048
8.048
8.024
8.108
8.052
8.048
8.02
8.088
8.044
8.064
7.976
8.068
8.064
8.072
8.012
8.024
8.06
8.072
8.04
8.036
8.056
8.048
8.052
8.024
8.088
8.056
8.056
8.012
8.08
8.06
8.08
8.012
8.088
8.064
8.052
8.004
8.068
8.036
8.064
8.024
8.068
8.072
8.072
8.024
8.056
8.068
8.072
8.036
8.036
8.08
8.064
8.04
8.032
8.108
8.06
8.088
8.024
8.08
8.056
8.08
8.068
8.148
8.14
8.176
8.148
8.196
8.212
8.26
8.228
8.22
8.272
8.284
8.244
8.24
8.288
8.2
8.22
8.176
8.184
8.088
8.084
8.04
8.132
8.048
8.076
8.012
8.076
8.044
8.048
8.004
8.048
8.056
8.056
8.032
8.008
8.016
7.972
7.952
7.944
8.44
9.164
10.072
10.796
10.584
10.004
9.68
9.252
8.852
8.456
8.348
8.28
8.292
8.256
8.248
8.176
8.152
8.136
8.132
8.108
8.116
8.136
8.116
8.096
8.092
8.128
8.14
8.112
8.068
8.148
8.12
8.14
8.1
8.144
8.124
8.144
8.08
8.148
8.152
8.16
8.116
8.16
8.188
8.176
8.144
8.16
8.216
8.2
8.204
8.184
8.248
8.236
8.248
8.216
8.268
8.248
8.26
8.22
8.292
8.276
8.32
8.292
8.352
8.38
8.412
8.396
8.424
8.44
8.492
8.496
8.52
8.604
8.596
8.584
8.616
8.696
8.692
8.72
8.704
8.808
8.752
8.8
8.72
8.78
8.712
8.684
8.6
8.604
8.52
8.5
8.38
8.392
8.364
8.328
8.264
8.236
8.232
8.208
8.164
8.168
8.22
8.124
8.132
8.112
8.184
8.128
8.164
8.088
8.132
8.116
8.148
8.076
8.104
8.132
8.136
8.072
8.112
8.128
8.132
8.08
8.088
8.16
8.124
8.096
8.104
8.148
8.136
8.148
8.088
8.148
8.104
8.12
8.068
8.148
8.12
8.124
8.08
8.124
8.1
8.112
8.056
8.092
8.12
8.12
8.08
8.08
8.104
8.096
8.1
8.04
8.136
8.084
8.104
8.052
8.136
8.076
8.076
8.036
8.112
8.068
8.096
8.036
8.076
8.104
8.104
8.04
8.064
8.132
8.112
8.084
8.072
8.124
8.08
8.084
8.06
8.14
8.088
8.072
8.044
8.12
8.1
8.072
8.044
8.064
8.064
8.1
8.056
8.084
8.104
8.088
8.068
8.08
8.112
8.112
8.08
8.036
8.112
8.056
8.06
8.056
8.124
8.072
8.096
8.044
8.104
8.084
8.1
8.048
8.096
8.096
8.104
8.064
8.092
8.12
8.108
8.064
8.08
8.124
8.112
8.088
8.048
8.132
8.104
8.1
8.056
8.116
8.088
8.088
8.044
8.136
8.164
8.168
8.132
8.24
8.228
8.248
8.244
8.28
8.328
8.3
8.256
8.256
8.312
8.284
8.232
8.224
8.288
8.172
8.072
8.056
8.152
8.108
8.068
8.028
8.116
8.092
8.068
8.028
8.064
8.08
8.08
8.008
8.052
8.092
8.016
7.928
7.916
7.976
8.404
9.136
10.06
10.928
10.704
10.132
9.776
9.512
8.996
8.548
8.24
8.272
8.304
8.264
8.22
8.204
8.18
8.176
8.136
8.124
8.132
8.144
8.088
8.1
8.164
8.112
8.108
8.1
8.16
8.136
8.124
8.064
8.144
8.128
8.116
8.096
8.16
8.152
8.128
8.12
8.148
8.152
8.16
8.1
8.14
8.2
8.2
8.168
8.18
8.248
8.212
8.192
8.168
8.26
8.216
8.22
8.22
8.3
8.272
8.264
8.252
8.356
8.34
8.36
8.352
8.388
8.424
8.456
8.448
8.488
8.556
8.572
8.568
8.596
8.672
8.688
8.692
8.68
8.804
8.768
8.784
8.74
8.8
8.784
8.716
8.604
8.644
8.58
8.524
8.428
8.42
8.368
8.328
8.252
8.236
8.264
8.208
8.132
8.124
8.188
8.14
8.1
8.068
8.172
8.132
8.1
8.044
8.128
8.104
8.092
8.064
8.092
8.12
8.096
8.04
8.08
8.1
8.088
8.044
8.092
8.128
8.096
8.068
8.048
8.128
8.112
8.072
8.06
8.136
8.096
8.1
8.04
8.116
8.076
8.068
8.008
8.1
8.088
8.096
8.032
8.044
8.096
8.08
8.036
8.028
8.08
8.068
8.052
8.036
8.108
8.068
8.044
8.024
8.108
8.06
8.052
8
8.084
8.052
8.04
7.984
8.064
8.052
8.06
7.988
8.024
8.068
8.044
8.004
8.012
8.08
8.048
7.988
8.012
8.076
8.032
8.004
7.96
8.068
8.044
8.02
7.976
8.056
8.052
8.024
7.996
8.028
8.036
8.024
7.964
8
8.048
8.02
7.988
8.004
8.052
8.04
8.024
7.984
8.06
8.048
8.032
7.988
8.048
8.044
8
7.972
8.044
8.036
8.032
7.988
8.04
8.04
8.024
7.964
8.02
8.056
8.044
7.988
7.98
8.064
8.032
8.008
7.98
8.06
8.028
8.008
7.976
8.076
8.044
8.052
8.04
8.144
8.144
8.148
8.112
8.204
8.228
8.22
8.168
8.188
8.236
8.208
8.168
8.164
8.22
8.148
8.06
8
8.064
8
7.96
7.944
8.036
7.992
7.96
7.92
8.008
7.996
7.992
7.932
7.976
7.992
7.948
7.876
7.852
7.84
7.988
8.556
9.444
10.444
10.94
10.372
9.864
9.62
9.128
8.656
8.256
8.256
8.244
8.208
8.128
8.152
8.092
8.056
8.016
8.06
8.08
8.044
7.992
8.04
8.06
8.052
8.016
8.032
8.1
8.04
8.032
7.988
8.076
8.048
8.024
8.016
8.076
8.032
8.02
8.012
8.108
8.064
8.044
8.02
8.064
8.1
8.088
8.044
8.096
8.156
8.124
8.108
8.104
8.176
8.152
8.136
8.112
8.224
8.18
8.176
8.168
8.28
8.26
8.184
8.212
8.312
8.352
8.352
8.312
8.396
8.46
8.468
8.416
8.488
8.572
8.564
8.548
8.588
8.692
8.688
8.672
8.652
8.736
8.688
8.624
8.536
8.6
8.532
8.472
8.368
8.376
8.336
8.26
8.168
8.184
8.216
8.144
8.08
8.096
8.152
8.052
8.012
8.008
8.14
8.064
8.016
8
8.088
8.056
8.016
7.984
8.048
8.036
8.028
7.988
8.052
8.048
8.024
7.976
8.04
8.08
8.028
8.004
8.036
8.08
8.036
8.016
7.988
8.088
8.024
8.016
7.992
8.068
8.052
8.012
7.992
8.08
8.048
8.028
7.968
8.032
8.048
8.008
7.956
8
8.064
8.012
7.968
7.992
8.052
8.024
7.98
7.976
8.068
8
7.98
7.968
8.048
8.02
7.98
7.96
8.044
8.008
8
7.96
8.028
8.04
7.98
7.94
7.976
8.064
8.012
7.952
7.968
8.06
8.004
7.968
7.968
8.064
8.024
7.976
7.924
8.044
8.012
7.988
7.944
8.02
8.008
8.004
7.98
8.02
8.036
8.004
7.948
8.016
8.056
8.008
7.96
7.992
8.064
8.024
7.98
7.972
8.056
8.008
7.992
7.96
8.052
7.992
8.004
7.976
8.048
8.036
8
7.912
8.02
8.036
7.98
7.956
7.988
8.064
8.036
7.964
7.98
8.06
8.032
7.98
7.972
8.076
8.028
7.976
7.944
8.064
8.02
8
7.992
8.064
8.124
8.12
8.068
8.148
8.228
8.2
8.144
8.192
8.248
8.2
8.192
8.196
8.224
8.164
8.124
8.076
8.124
8.036
7.984
7.992
8.048
8.036
8.024
7.96
8.028
8.024
7.992
7.956
8.004
8.036
7.976
7.94
7.944
7.96
7.86
7.78
8.116
8.868
9.724
10.564
10.656
10.18
9.752
9.348
8.852
8.528
8.288
8.2
8.148
8.2
8.176
8.12
8.036
8.068
8.108
8.04
8.004
8.008
8.108
8.056
8.012
8.016
8.108
8.056
8.036
8.008
8.1
8.076
8.04
7.992
8.092
8.076
8.028
8.016
8.08
8.092
8.052
8.024
8.08
8.12
8.084
8.064
8.076
8.16
8.088
8.068
8.088
8.176
8.12
8.1
8.1
8.2
8.176
8.128
8.124
8.232
8.236
8.2
8.176
8.276
8.3
8.276
8.276
8.344
8.404
8.396
8.396
8.436
8.512
8.492
8.484
8.52
8.648
8.628
8.608
8.6
8.712
8.704
8.66
8.592
8.652
8.592
8.544
8.452
8.472
8.436
8.332
8.244
8.28
8.272
8.188
8.116
8.116
8.192
8.112
8.052
8.02
8.136
8.036
8.024
7.992
8.084
8.036
8.008
8.008
8.064
8.036
8
7.956
8.04
8.068
7.984
7.968
8.02
8.056
8.016
7.996
8.004
8.084
8.016
7.96
8.004
8.088
8
7.98
7.972
8.056
8.016
7.972
7.94
8.016
8.032
8
7.9
7.98
8.02
7.988
7.94
7.984
8.028
7.992
7.956
7.992
8.076
7.984
7.948
7.952
8.044
7.992
7.968
7.92
8.044
8.012
7.968
7.944
8.012
8.012
7.996
7.96
7.992
8.02
7.948
7.924
8
8.04
7.964
7.956
7.996
8.064
8
7.94
7.936
8.032
8
7.956
7.944
8.008
8.008
7.972
7.928
8.028
8.02
7.956
7.936
8.012
8.06
7.996
7.952
7.98
8.032
7.996
7.972
7.996
8.056
8
7.972
7.956
8.044
8.004
7.948
7.956
8.04
8.012
7.976
7.932
8.016
8.008
7.956
7.92
8.008
8.048
8.012
7.956
7.988
8.032
7.988
7.924
7.984
8.052
8.004
7.976
7.992
8.064
8.008
7.932
7.952
8.056
8.044
7.972
7.952
8.028
8.044
8.02
7.988
8.076
8.148
8.104
8.096
8.18
8.26
8.184
8.148
8.16
8.276
8.224
8.164
8.156
8.216
8.16
8.104
8.02
8.044
8.036
7.988
7.936
8.008
8.016
7.964
7.928
7.984
8.032
7.948
7.904
7.98
8.052
7.952
7.908
7.876
7.936
7.824
7.812
8.336
9.16
10.06
10.78
10.46
10.04
9.712
9.272
8.768
8.436
8.22
8.164
8.1
8.176
8.2
8.104
8.04
8.04
8.104
8.016
8.004
8.012
8.104
8.04
7.996
7.976
8.088
8.056
7.98
7.972
8.06
8.064
7.988
7.984
8.044
8.088
8.032
7.996
8.06
8.124
8.024
8.016
8.04
8.116
8.056
8.032
8.068
8.188
8.076
8.056
8.044
8.168
8.136
8.084
8.08
8.188
8.2
8.164
8.104
8.212
8.232
8.184
8.196
8.28
8.336
8.288
8.268
8.352
8.448
8.4
8.384
8.424
8.544
8.504
8.508
8.508
8.644
8.668
8.644
8.644
8.74
8.72
8.66
8.608
8.66
8.624
8.528
8.436
8.448
8.448
8.332
8.252
8.22
8.284
8.16
8.092
8.056
8.144
8.06
8.016
8.004
8.1
8.044
7.984
7.968
8.064
8.06
7.964
7.94
8.012
8.024
7.988
7.952
8.02
8.076
7.992
7.956
7.988
8.088
8.008
7.972
7.988
8.084
8.016
7.956
7.936
8.064
8.028
7.944
7.94
8.012
8.036
7.988
7.936
7.996
8.06
7.976
7.948
7.98
8.052
7.996
7.936
7.956
8.044
7.968
7.932
7.912
8.044
8.008
7.952
7.928
8.028
8.008
7.956
7.94
7.996
8.02
7.944
7.936
8.016
8.048
7.92
7.932
7.984
8.06
7.984
7.924
7.988
8.076
7.984
7.944
7.956
8.048
8
7.952
7.952
8.024
8.016
7.96
7.952
8.016
8.012
7.96
7.932
7.996
8.056
7.972
7.96
7.988
8.068
8.008
7.964
7.972
8.092
7.996
7.972
7.956
8.036
8
7.968
7.956
8.028
8.024
7.964
7.94
8.008
8.044
7.972
7.952
8.016
8.06
7.976
7.952
8
8.06
7.968
7.956
7.972
8.088
7.996
7.968
7.956
8.068
8.048
8.024
8.012
8.136
8.14
8.084
8.108
8.196
8.22
8.168
8.152
8.228
8.268
8.192
8.148
8.164
8.288
8.148
8.112
8.036
8.096
8.02
7.988
7.968
8.064
8.028
7.988
7.94
8.04
8
7.972
7.94
8.012
8.06
7.996
7.94
7.928
7.964
7.832
7.888
8.492
9.432
10.288
10.924
10.488
10.1
9.692
9.212
8.764
8.444
8.244
8.192
8.16
8.244
8.2
8.108
8.044
8.1
8.14
8.044
7.996
8.064
8.136
8.044
8.02
8.012
8.14
8.052
8.008
8.024
8.148
8.076
8.012
8.004
8.128
8.092
8.016
8.008
8.1
8.136
8.06
8.04
8.112
8.164
8.088
8.092
8.116
8.176
8.108
8.072
8.148
8.24
8.136
8.116
8.164
8.256
8.204
8.18
8.208
8.304
8.26
8.252
8.264
8.364
8.348
8.296
8.336
8.432
8.468
8.424
8.468
8.516
8.628
8.552
8.56
8.632
8.744
8.68
8.656
8.716
8.792
8.74
8.652
8.676
8.716
8.636
8.508
8.5
8.504
8.472
8.308
8.264
8.284
8.312
8.176
8.124
8.144
8.216
8.092
8.056
8.072
8.18
8.06
8.028
8.064
8.156
8.056
8.024
8.024
8.112
8.092
8.024
8.004
8.072
8.116
8.052
8.028
8.064
8.128
8.056
8.02
8.068
8.132
8.044
8.024
8.04
8.164
8.044
8.02
8.024
8.116
8.056
8.02
8.024
8.1
8.096
8.012
7.996
8.052
8.084
8.012
7.992
8.056
8.08
7.996
7.964
8.044
8.108
8.004
7.98
8.016
8.104
8.032
7.964
8.008
8.104
8.024
7.984
8
8.068
8.064
7.956
7.988
8.084
8.072
7.996
7.98
8.04
8.1
7.996
7.984
8.032
8.108
8.024
7.976
8.032
8.108
8.032
7.984
8.008
8.108
8.02
8.012
8.016
8.084
8.048
7.976
8
8.064
8.076
7.976
7.964
8.044
8.108
7.992
7.972
8.012
8.12
7.996
7.988
8.04
8.144
8.032
7.98
8.02
8.116
8.036
7.976
8.004
8.088
8.084
7.98
7.992
8.072
8.108
7.988
7.988
8.028
8.124
7.992
8
8.052
8.136
8.02
7.98
8.04
8.124
8.04
8.012
8.072
8.176
8.136
8.096
8.156
8.228
8.232
8.196
8.168
8.264
8.272
8.184
8.184
8.252
8.296
8.144
8.132
8.156
8.176
8.028
7.988
8.032
8.116
8.032
7.98
8.012
8.072
8.016
7.976
7.992
8.056
8.048
7.976
7.964
7.992
8
7.864
7.8
8.056
8.748
9.484
10.372
10.828
10.388
9.804
9.46
9.048
8.704
8.332
8.196
8.216
8.304
8.208
8.112
8.096
8.144
8.144
8.04
8.024
8.096
8.128
8.008
8.02
8.064
8.152
8.02
8.008
8.044
8.172
8.044
8.008
8.036
8.14
8.068
7.996
8.064
8.124
8.104
8.036
8.044
8.1
8.124
8.04
8.068
8.132
8.176
8.072
8.08
8.164
8.244
8.124
8.096
8.152
8.284
8.184
8.12
8.192
8.3
8.252
8.216
8.252
8.312
8.296
8.26
8.312
8.412
8.444
8.34
8.372
8.496
8.544
8.484
8.492
8.552
8.68
8.568
8.596
8.656
8.748
8.676
8.652
8.664
8.724
8.612
8.512
8.52
8.532
8.452
8.308
8.3
8.336
8.324
8.156
8.148
8.184
8.192
8.06
8.048
8.08
8.144
8.036
7.992
8.056
8.14
8.016
7.976
8.052
8.104
8.04
7.992
7.996
8.064
8.032
7.992
7.988
8.068
8.084
7.988
7.992
8.032
8.084
7.984
7.984
8.04
8.116
7.988
7.94
8.024
8.12
8.012
7.944
7.988
8.088
8.024
7.956
7.984
8.052
8.016
7.956
7.988
8.052
8.052
7.948
7.952
8.024
8.088
7.944
7.92
7.976
8.1
7.964
7.94
8
8.084
7.996
7.932
8.004
8.076
8
7.908
7.976
8.068
8.028
7.924
7.948
8.052
8.076
7.928
7.944
8.02
8.056
7.952
7.952
7.988
8.072
7.972
7.948
8.004
8.084
7.984
7.944
7.988
8.068
8.004
7.948
7.976
8.052
8.016
7.94
7.952
8.012
8.056
7.956
7.936
8.02
8.072
7.94
7.932
8.012
8.064
7.96
7.928
7.984
8.06
7.964
7.936
7.972
8.076
8.028
7.94
7.96
8.028
8.02
7.948
7.972
8.016
8.072
7.94
7.96
8.02
8.08
7.94
7.916
8
8.08
7.964
7.952
8.048
8.116
8.032
8.024
8.108
8.168
8.136
8.104
8.144
8.22
8.192
8.112
8.14
8.228
8.236
8.096
8.084
8.16
8.144
7.98
7.928
8.016
8.1
7.924
7.892
7.972
8.044
7.936
7.896
7.964
8.028
7.98
7.908
7.928
7.988
7.952
7.812
7.776
7.884
8.452
9.076
9.964
10.74
10.46
9.848
9.524
9.22
8.852
8.36
8.104
8.192
8.228
8.132
8.036
8.028
8.12
8.068
7.96
7.98
8.044
8.024
7.96
7.944
8.02
8.032
7.932
7.952
8.04
8.084
7.944
7.94
8.02
8.08
7.976
7.928
8
8.096
8.008
7.948
8.008
8.064
8.032
7.956
8.004
8.1
8.088
7.976
7.972
8.108
8.16
8.016
8.04
8.1
8.192
8.08
8.052
8.156
8.232
8.148
8.108
8.176
8.244
8.2
8.18
8.244
8.32
8.324
8.276
8.332
8.456
8.456
8.376
8.412
8.544
8.6
8.5
8.504
8.612
8.72
8.604
8.572
8.652
8.696
8.556
8.456
8.488
8.512
8.38
8.252
8.272
8.296
8.208
8.084
8.08
8.152
8.12
8.016
8.008
8.056
8.084
7.936
7.94
8.02
8.068
7.944
7.904
8.012
8.064
7.96
7.9
7.964
8.032
7.968
7.896
7.948
8.012
7.98
7.912
7.892
7.98
8.004
7.904
7.932
7.992
8.052
7.892
7.936
8
8.076
7.94
7.912
7.952
8.016
7.948
7.904
7.96
8.04
7.96
7.912
7.948
8.004
7.988
7.88
7.908
8.008
7.976
7.904
7.872
7.968
8.024
7.904
7.876
7.976
8.024
7.932
7.908
7.948
8.02
7.912
7.864
7.944
8.02
7.936
7.884
7.912
7.976
7.952
7.888
7.908
7.968
8.004
7.892
7.868
7.96
8.016
7.864
7.876
7.944
8.036
7.912
7.86
7.912
8.036
7.924
7.852
7.936
8.016
7.952
7.88
7.916
8
7.98
7.876
7.892
7.984
8.016
7.884
7.908
7.972
8.032
7.888
7.872
7.972
8.052
7.888
7.88
7.952
8.036
7.936
7.884
7.908
7.992
7.964
7.908
7.924
7.988
7.976
7.884
7.912
8.008
8.096
7.984
8.012
8.1
8.188
8.052
8.072
8.16
8.264
8.116
8.124
8.192
8.24
8.144
8.076
8.124
8.18
8.08
7.944
7.956
8.028
8.008
7.908
7.908
7.996
8.016
7.892
7.888
7.956
8.02
7.896
7.896
7.976
8.028
7.828
7.804
7.824
7.912
8.256
8.968
9.928
10.864
10.672
10.016
9.704
9.436
8.948
8.408
8.164
8.176
8.22
8.072
8.072
8.12
8.152
7.976
7.976
8.04
8.104
7.972
7.924
8.008
8.1
8
7.94
8.004
8.04
8.016
7.96
8
8.06
8.068
7.976
7.972
8.076
8.076
7.976
7.976
8.076
8.108
7.996
7.988
8.076
8.168
8.044
8.02
8.072
8.136
8.084
8.032
8.1
8.18
8.144
8.064
8.104
8.2
8.22
8.116
8.124
8.24
8.316
8.184
8.216
8.316
8.4
8.3
8.304
8.388
8.492
8.396
8.408
8.504
8.612
8.572
8.508
8.584
8.72
8.68
8.596
8.636
8.716
8.684
8.516
8.468
8.536
8.52
8.34
8.272
8.308
8.352
8.176
8.108
8.156
8.2
8.072
7.992
8.052
8.12
8.044
7.948
8.012
8.064
7.996
7.944
7.964
8.06
8.056
7.908
7.964
8.06
8.084
7.94
7.952
8.02
8.092
7.944
7.944
8.016
8.068
7.972
7.952
7.988
8.064
8.004
7.932
7.94
8.048
8.008
7.928
7.968
8.036
8.044
7.896
7.936
8.016
8.044
7.92
7.916
7.996
8.06
7.94
7.904
7.988
8.016
7.944
7.92
7.948
8.028
7.968
7.912
7.948
8.04
7.988
7.904
7.92
7.996
8.024
7.904
7.892
8
8.056
7.936
7.912
7.996
8.04
7.92
7.876
7.98
8.032
7.936
7.904
7.956
8.044
7.992
7.896
7.944
8.032
7.996
7.908
7.896
8.024
8.036
7.896
7.92
8.016
8.052
7.9
7.892
7.984
8.064
7.908
7.884
7.972
8.032
7.932
7.892
7.96
8.036
7.98
7.896
7.94
8.016
7.996
7.908
7.944
8.028
8.008
7.904
7.896
8.004
8.056
7.908
7.908
8
8.056
7.948
7.912
7.96
8.028
7.984
7.988
8.036
8.136
8.1
8.012
8.104
8.212
8.196
8.112
8.112
8.228
8.256
8.12
8.12
8.184
8.196
8.072
7.996
8.032
8.084
7.928
7.908
7.972
8.056
7.94
7.856
7.948
8
7.964
7.88
7.9
8.024
7.976
7.884
7.856
7.904
7.9
7.76
8.172
8.988
9.976
10.708
10.616
10.14
9.8
9.304
8.792
8.46
8.32
8.196
8.116
8.152
8.188
8.096
7.992
8.036
8.064
8.08
7.964
7.984
8.056
8.088
7.924
7.956
8.044
8.08
7.956
7.944
8.028
8.116
7.992
7.932
8.024
8.076
7.996
7.936
8.008
8.068
8.056
7.964
8.016
8.124
8.1
7.98
8.012
8.116
8.14
8.024
7.992
8.144
8.176
8.068
8.056
8.176
8.236
8.132
8.104
8.188
8.26
8.184
8.152
8.256
8.34
8.304
8.24
8.308
8.412
8.456
8.34
8.396
8.516
8.556
8.464
8.528
8.612
8.692
8.568
8.596
8.692
8.74
8.608
8.564
8.608
8.628
8.504
8.384
8.396
8.424
8.328
8.148
8.18
8.22
8.2
8.032
8.056
8.116
8.12
7.972
7.956
8.052
8.108
7.936
7.932
8.004
8.084
7.964
7.888
7.964
8.056
7.968
7.888
7.976
8.028
8.02
7.892
7.952
8.04
8.036
7.908
7.936
8.016
8.064
7.912
7.908
8.016
8.068
7.912
7.912
7.988
8.056
7.94
7.896
7.984
8.048
7.94
7.888
7.98
8.016
7.996
7.892
7.908
8.024
8.044
7.892
7.88
7.976
8.036
7.888
7.896
7.968
8.044
7.908
7.884
7.972
8.012
7.928
7.868
7.948
8.028
7.96
7.852
7.88
7.984
7.984
7.86
7.908
7.992
8.028
7.892
7.912
7.988
8.02
7.892
7.868
7.996
8.044
7.916
7.868
7.968
8.024
7.928
7.868
7.936
8.012
7.952
7.872
7.9
8.004
7.992
7.884
7.916
8.016
8.016
7.86
7.9
7.992
8.04
7.876
7.868
7.972
8.056
7.912
7.876
7.952
8.04
7.932
7.868
7.936
8.012
7.948
7.888
7.952
8.02
7.988
7.844
7.892
8.012
8.04
7.864
7.908
7.984
8.06
7.928
7.944
8.048
8.092
8.02
8.024
8.108
8.176
8.132
8.052
8.144
8.224
8.148
8.052
8.096
8.176
8.168
8.008
7.996
8.044
8.044
7.904
7.872
8
8.012
7.888
7.868
7.94
8.008
7.888
7.848
7.944
8.032
7.916
7.836
7.86
7.924
7.848
7.68
7.996
8.716
9.596
10.352
10.64
10.164
9.768
9.316
8.908
8.56
8.352
8.128
8.104
8.192
8.212
8.056
7.944
7.996
8.076
7.992
7.908
7.992
8.064
8.024
7.908
7.968
8.048
8.048
7.916
7.952
8.064
8.084
7.92
7.952
8.06
8.096
7.96
7.952
8.028
8.096
7.988
7.952
8.04
8.112
8.052
7.968
8.04
8.124
8.104
7.992
8.044
8.156
8.192
8.028
8.06
8.192
8.216
8.076
8.1
8.2
8.272
8.132
8.136
8.24
8.348
8.228
8.18
8.3
8.44
8.384
8.316
8.408
8.52
8.524
8.424
8.512
8.616
8.624
8.512
8.584
8.7
8.696
8.568
8.588
8.636
8.636
8.468
8.38
8.456
8.44
8.3
8.18
8.228
8.276
8.18
8.036
8.112
8.192
8.104
7.988
8.044
8.096
8.092
7.936
7.972
8.06
8.088
7.92
7.936
8.056
8.112
7.968
7.944
8.012
8.092
8.008
7.928
8.004
8.104
8.032
7.924
8.016
8.064
8.028
7.924
7.972
8.088
8.12
7.932
7.952
8.064
8.096
7.928
7.948
8.036
8.104
7.972
7.924
8.024
8.072
7.952
7.92
8.004
8.084
8.008
7.876
7.992
8.068
8.04
7.912
7.972
8.056
8.06
7.904
7.932
8.068
8.08
7.928
7.916
8.064
8.104
7.94
7.904
8.04
8.1
7.988
7.916
8
8.072
8.04
7.9
7.98
8.06
8.036
7.944
7.964
8.056
8.084
7.924
7.948
8.064
8.096
7.936
7.928
8.044
8.12
7.984
7.932
7.984
8.084
8.004
7.94
8.016
8.064
8.044
7.948
7.984
8.084
8.048
7.928
7.984
8.08
8.088
7.944
7.98
8.076
8.12
7.952
7.964
8.076
8.104
8.008
7.96
8.044
8.108
7.996
7.928
8.024
8.116
8.068
7.972
8.06
8.18
8.208
8.06
8.136
8.252
8.312
8.16
8.172
8.292
8.312
8.172
8.16
8.236
8.28
8.148
8.076
8.096
8.112
8.06
7.964
8.024
8.096
8.052
7.948
7.976
8.08
8.056
7.924
7.952
8.08
8.08
7.952
7.956
7.992
7.992
7.796
7.932
8.616
9.508
10.284
10.836
10.48
10.068
9.676
9.184
8.8
8.496
8.288
8.16
8.204
8.312
8.256
8.064
8.064
8.16
8.156
8.02
8.028
8.144
8.176
8.02
7.996
8.096
8.148
8.056
8.02
8.088
8.16
8.072
8.024
8.084
8.18
8.152
8.024
8.072
8.184
8.18
8.04
8.044
8.16
8.2
8.072
8.072
8.192
8.24
8.1
8.136
8.2
8.26
8.136
8.128
8.204
8.308
8.232
8.18
8.216
8.336
8.332
8.208
8.268
8.408
8.42
8.292
8.36
8.476
8.524
8.416
8.488
8.6
8.664
8.568
8.58
8.704
8.776
8.72
8.688
8.744
8.844
8.764
8.66
8.672
8.728
8.644
8.496
8.468
8.508
8.488
8.3
8.272
8.348
8.324
8.16
8.124
8.192
8.232
8.084
8.044
8.108
8.196
8.108
8.012
8.068
8.164
8.076
7.964
8.048
8.168
8.116
7.996
8.024
8.148
8.116
7.968
8.004
8.124
8.168
8.02
8.004
8.128
8.172
8.04
8.024
8.088
8.132
8.056
8.004
8.068
8.124
8.072
7.996
8.052
8.144
8.116
7.992
8.02
8.1
8.116
7.984
8
8.1
8.136
7.992
8.016
8.092
8.132
8.016
7.988
8.08
8.12
8.02
7.968
8.052
8.136
8.076
7.968
8.048
8.104
8.12
7.964
8.004
8.108
8.116
7.956
8.024
8.108
8.128
7.984
8.004
8.1
8.152
8
7.964
8.076
8.14
8.06
7.984
8.028
8.136
8.088
8.004
8.048
8.148
8.132
7.98
8.012
8.164
8.144
8
8.028
8.136
8.16
8.012
8.004
8.128
8.164
8.052
8.016
8.076
8.148
8.08
8.008
8.088
8.164
8.088
7.984
8.036
8.16
8.16
8.036
8.092
8.228
8.276
8.136
8.188
8.312
8.36
8.228
8.236
8.316
8.344
8.244
8.216
8.3
8.344
8.244
8.168
8.18
8.196
8.16
8.036
8.092
8.16
8.136
8.02
8.048
8.16
8.164
8.012
8.064
8.18
8.148
8.052
8.036
8.104
8.096
7.956
7.856
8.36
9.136
9.996
10.82
10.904
10.404
9.976
9.52
9.092
8.744
8.48
8.276
8.324
8.408
8.392
8.192
8.18
8.284
8.292
8.124
8.108
8.22
8.272
8.136
8.112
8.168
8.244
8.2
8.092
8.2
8.276
8.224
8.1
8.196
8.26
8.24
8.084
8.132
8.28
8.292
8.14
8.168
8.28
8.296
8.18
8.176
8.276
8.328
8.244
8.208
8.304
8.356
8.308
8.204
8.292
8.4
8.372
8.26
8.316
8.424
8.452
8.312
8.364
8.496
8.52
8.424
8.464
8.572
8.596
8.532
8.54
8.684
8.732
8.696
8.652
8.76
8.876
8.808
8.736
8.848
8.908
8.888
8.752
8.808
8.836
8.8
8.608
8.608
8.648
8.584
8.4
8.38
8.428
8.416
8.268
8.228
8.3
8.316
8.208
8.136
8.216
8.276
8.204
8.108
8.192
8.26
8.22
8.092
8.156
8.22
8.224
8.084
8.14
8.24
8.244
8.112
8.132
8.216
8.232
8.128
8.1
8.204
8.232
8.176
8.108
8.2
8.232
8.192
8.1
8.18
8.256
8.2
8.104
8.164
8.24
8.232
8.088
8.124
8.228
8.244
8.104
8.112
8.216
8.204
8.12
8.092
8.2
8.224
8.136
8.064
8.168
8.24
8.176
8.036
8.136
8.212
8.192
8.04
8.144
8.232
8.208
8.04
8.12
8.22
8.204
8.072
8.08
8.212
8.208
8.108
8.044
8.148
8.192
8.12
8.052
8.14
8.196
8.168
8.052
8.132
8.216
8.164
8.02
8.128
8.212
8.192
8.072
8.096
8.18
8.204
8.072
8.08
8.176
8.208
8.104
8.048
8.148
8.192
8.112
8.056
8.156
8.192
8.152
8.028
8.124
8.192
8.152
8.04
8.116
8.208
8.192
8.052
8.084
8.192
8.176
8.08
8.08
8.184
8.196
8.088
8.056
8.176
8.252
8.168
8.12
8.252
8.304
8.292
8.196
8.316
8.396
8.352
8.24
8.3
8.372
8.368
8.216
8.228
8.312
8.288
8.108
8.084
8.176
8.188
8.088
8
8.112
8.168
8.076
8
8.064
8.152
8.128
8.024
8.08
8.124
8.128
7.94
7.976
7.964
8.232
8.672
9.564
10.548
11
10.332
9.9
9.608
9.208
8.712
8.356
8.34
8.392
8.292
8.188
8.216
8.252
8.22
8.08
8.144
8.168
8.216
8.052
8.12
8.164
8.236
8.096
8.1
8.168
8.208
8.104
8.096
8.144
8.2
8.16
8.096
8.156
8.216
8.18
8.08
8.172
8.224
8.232
8.096
8.16
8.24
8.276
8.132
8.176
8.236
8.28
8.152
8.192
8.26
8.308
8.204
8.236
8.32
8.372
8.292
8.244
8.34
8.428
8.372
8.3
8.4
8.484
8.5
8.392
8.472
8.552
8.624
8.504
8.58
8.644
8.728
8.628
8.656
8.756
8.84
8.76
8.732
8.788
8.832
8.724
8.624
8.648
8.652
8.592
8.44
8.452
8.444
8.444
8.248
8.28
8.28
8.3
8.156
8.192
8.196
8.248
8.12
8.1
8.148
8.208
8.104
8.104
8.12
8.2
8.132
8.072
8.144
8.192
8.16
8.06
8.144
8.176
8.188
8.044
8.112
8.176
8.212
8.052
8.108
8.14
8.2
8.068
8.08
8.136
8.192
8.088
8.068
8.112
8.172
