8.052
8.06
8.064
8.08
8.088
8.068
8.092
8.124
8.116
8.096
8.112
8.128
8.16
8.132
8.14
8.128
8.164
8.172
8.184
8.168
8.192
8.208
8.196
8.22
8.256
8.248
8.228
8.252
8.312
8.316
8.32
8.328
8.38
8.428
8.436
8.44
8.496
8.544
8.548
8.604
8.628
8.668
8.684
8.708
8.78
8.824
8.844
8.864
8.908
8.952
8.956
8.972
8.972
9
8.988
8.94
8.912
8.872
8.824
8.76
8.68
8.612
8.54
8.472
8.408
8.364
8.312
8.24
8.204
8.176
8.16
8.144
8.116
8.1
8.096
8.076
8.044
8.064
8.068
8.04
8.028
8.04
8.052
8.04
8.036
8.032
8.04
8.056
8.04
8.024
8.032
8.064
8.068
8.052
8.04
8.052
8.04
8.036
8.048
8.056
8.036
8.024
8.056
8.048
8.044
8.024
8.032
8.06
8.052
8.036
8.02
8.032
8.048
8.012
8.008
8.036
8.04
8.008
8
8.032
8.036
8.012
7.992
8.016
8.032
8.028
8.012
7.992
8.004
8.024
8
7.984
8.004
8.008
7.988
7.992
7.98
7.996
8.008
7.988
7.996
8.02
7.976
7.976
7.976
8.016
7.996
7.968
7.976
8.024
8.012
7.996
7.988
7.984
8
7.98
8.008
8.004
7.992
7.984
7.988
8.004
7.988
7.98
7.972
7.996
8.004
7.988
7.996
7.988
7.996
8.008
7.98
7.988
8.004
7.98
7.972
8.004
8.02
7.992
7.984
7.992
8.016
8.016
7.972
7.984
7.992
8.016
8
7.992
7.992
7.996
7.996
7.984
7.972
8.004
7.996
7.968
8
8.024
7.98
7.988
8.004
8
8.04
8.032
8.056
8.112
8.12
8.08
8.044
8.084
8.152
8.156
8.172
8.132
8.116
8.108
8.068
8.052
8.076
8.04
8.036
8.02
8.024
8.02
7.964
7.952
7.964
7.976
7.944
7.976
7.956
7.972
7.976
7.984
7.98
7.924
7.868
7.812
7.912
8.124
8.452
8.924
9.52
10.108
10.232
9.7
9.116
8.648
8.232
7.852
7.812
7.94
8.032
8.092
8.108
8.124
8.112
8.076
8.052
8.076
8.084
8.064
8.056
8.072
8.096
8.088
8.088
8.064
8.112
8.084
8.104
8.1
8.088
8.12
8.096
8.124
8.164
8.148
8.132
8.132
8.164
8.188
8.168
8.172
8.196
8.22
8.192
8.212
8.252
8.256
8.244
8.268
8.296
8.304
8.328
8.3
8.344
8.404
8.416
8.408
8.44
8.476
8.508
8.528
8.544
8.612
8.644
8.664
8.708
8.752
8.792
8.824
8.856
8.912
8.956
8.956
8.976
9.028
9.08
9.076
9.076
9.068
9.092
9.056
9.008
8.96
8.932
8.856
8.764
8.692
8.64
8.572
8.488
8.444
8.392
8.348
8.292
8.252
8.224
8.232
8.196
8.164
8.152
8.16
8.132
8.12
8.136
8.12
8.124
8.12
8.112
8.12
8.144
8.088
8.132
8.136
8.164
8.12
8.104
8.148
8.16
8.152
8.116
8.128
8.144
8.14
8.132
8.136
8.136
8.128
8.124
8.144
8.144
8.144
8.108
8.124
8.164
8.152
8.12
8.128
8.148
8.128
8.128
8.1
8.132
8.132
8.12
8.088
8.12
8.116
8.088
8.112
8.12
8.128
8.104
8.088
8.108
8.112
8.128
8.1
8.084
8.12
8.104
8.08
8.084
8.108
8.108
8.108
8.08
8.104
8.104
8.084
8.08
8.096
8.104
8.104
8.084
8.08
8.096
8.096
8.072
8.088
8.096
8.088
8.088
8.104
8.096
8.088
8.104
8.1
8.112
8.104
8.064
8.08
8.112
8.116
8.072
8.084
8.076
8.124
8.096
8.076
8.084
8.108
8.116
8.092
8.104
8.096
8.104
8.092
8.084
8.104
8.096
8.104
8.072
8.132
8.144
8.144
8.152
8.172
8.208
8.184
8.156
8.14
8.212
8.228
8.24
8.24
8.188
8.212
8.152
8.172
8.164
8.124
8.108
8.1
8.108
8.112
8.036
8.044
8.052
8.06
8.052
8.028
8.072
8.088
8.056
8.092
8.092
8.056
7.968
7.888
7.968
8.108
8.372
8.832
9.392
10.044
10.332
10.036
9.424
8.944
8.508
8.056
7.868
7.94
8.052
8.124
8.156
8.192
8.188
8.14
8.148
8.156
8.168
8.132
8.124
8.128
8.156
8.164
8.152
8.144
8.176
8.156
8.172
8.188
8.18
8.196
8.172
8.176
8.204
8.212
8.18
8.188
8.228
8.244
8.228
8.22
8.24
8.244
8.26
8.268
8.28
8.28
8.292
8.3
8.328
8.34
8.356
8.328
8.38
8.404
8.424
8.432
8.468
8.508
8.512
8.544
8.568
8.616
8.64
8.684
8.696
8.768
8.804
8.82
8.84
8.9
8.956
8.964
8.976
9.004
9.056
9.056
9.06
9.06
9.076
9.06
9.008
8.94
8.9
8.848
8.74
8.668
8.628
8.58
8.488
8.428
8.404
8.352
8.292
8.228
8.248
8.248
8.176
8.164
8.144
8.172
8.148
8.12
8.116
8.136
8.136
8.128
8.124
8.156
8.128
8.112
8.112
8.14
8.132
8.108
8.112
8.132
8.152
8.132
8.124
8.136
8.124
8.104
8.12
8.108
8.136
8.124
8.088
8.12
8.116
8.128
8.084
8.1
8.128
8.12
8.076
8.088
8.116
8.092
8.096
8.064
8.076
8.088
8.088
8.084
8.08
8.084
8.084
8.076
8.064
8.076
8.084
8.04
8.048
8.088
8.088
8.052
8.032
8.052
8.064
8.052
8.052
8.06
8.068
8.06
8.036
8.036
8.052
8.056
8.036
8.064
8.06
8.064
8.048
8.044
8.072
8.068
8.032
8.052
8.064
8.052
8.052
8.02
8.06
8.044
8.028
8.06
8.068
8.068
8.044
8.016
8.072
8.064
8.048
8.024
8.024
8.064
8.056
8.024
8.052
8.04
8.056
8.056
8.028
8.04
8.04
8.028
8.044
8.072
8.06
8.036
8.012
8.04
8.072
8.044
8.068
8.096
8.156
8.156
8.132
8.104
8.116
8.16
8.188
8.176
8.196
8.144
8.124
8.112
8.076
8.068
8.056
8.072
8.076
8.056
8.012
7.984
7.996
8
7.992
7.992
7.992
8.012
7.988
7.976
7.984
8.004
7.972
7.9
7.856
7.928
8.048
8.316
8.78
9.32
9.968
10.276
9.908
9.312
8.832
8.384
7.92
7.82
7.924
8.02
8.032
8.124
8.128
8.1
8.088
8.08
8.104
8.088
8.052
8.06
8.092
8.076
8.048
8.072
8.092
8.104
8.084
8.084
8.1
8.12
8.084
8.104
8.128
8.128
8.104
8.1
8.132
8.128
8.136
8.132
8.148
8.16
8.176
8.18
8.192
8.212
8.22
8.216
8.24
8.256
8.268
8.272
8.276
8.324
8.352
8.356
8.364
8.42
8.456
8.46
8.46
8.5
8.56
8.588
8.6
8.652
8.684
8.724
8.772
8.808
8.832
8.868
8.884
8.924
8.996
9.024
9.012
9.004
9.04
9.044
8.968
8.928
8.916
8.864
8.78
8.7
8.64
8.58
8.496
8.452
8.388
8.332
8.272
8.232
8.188
8.192
8.168
8.108
8.108
8.132
8.14
8.08
8.068
8.052
8.064
8.068
8.052
8.084
8.072
8.048
8.048
8.08
8.064
8.064
8.044
8.056
8.08
8.06
8.068
8.056
8.092
8.096
8.076
8.088
8.08
8.08
8.068
8.088
8.084
8.084
8.048
8.06
8.08
8.064
8.084
8.068
8.068
8.084
8.068
8.056
8.06
8.056
8.052
8.056
8.024
8.06
8.064
8.044
8.052
8.068
8.06
8.024
8.028
8.06
8.052
8.036
8.012
8.036
8.064
8.016
8.02
8.016
8.044
8.048
8.024
8.028
8.024
8.02
7.996
8.028
8.048
8.028
8
8.012
8.036
8.032
8.028
8.004
8.008
8.024
8.008
8.016
8.036
8.024
8.028
8.016
8.024
8.028
8.02
7.976
8.032
8.036
8.028
7.992
8.008
8.024
8.028
8.012
7.984
8.008
8.008
7.984
7.984
8.004
8.004
7.984
8.008
8.024
8.036
7.968
7.976
8.004
8.02
8.004
8
7.996
8.024
8.012
8.008
7.984
8.004
8.024
8.02
7.988
8.004
8.02
8
8
8.016
8.012
8.004
7.98
8.016
8.024
8
8.004
8
8.012
8.032
7.984
8.02
8.02
8.028
8
8.008
8.016
8.016
7.98
8.016
8.012
8.008
8.004
7.996
8.044
8.06
8.072
8.048
8.108
8.116
8.096
8.06
8.132
8.176
8.168
8.14
8.1
8.112
8.08
8.04
8.036
8.06
8.048
8.012
8.004
8.008
8.004
7.948
7.92
7.956
7.952
7.936
7.956
7.96
7.98
7.956
7.96
7.964
7.896
7.816
7.884
8.032
8.416
8.848
9.384
10.036
10.244
9.828
9.2
8.692
8.272
7.876
7.812
7.932
8.04
8.096
8.064
8.072
8.072
8.076
8.036
8.016
8.056
8.052
8.04
8.028
8.036
8.048
8.06
8.032
8.06
8.084
8.056
8.056
8.064
8.076
8.072
8.06
8.072
8.088
8.16
8.076
8.084
8.116
8.152
7.98
8.132
8.156
8.176
8.176
8.004
8.188
8.196
8.216
8.216
8.248
8.276
8.284
8.272
8.3
8.344
8.348
8.356
8.372
8.428
8.48
8.48
8.496
8.552
8.604
8.636
8.66
8.684
8.736
8.772
8.804
8.84
8.896
8.904
8.92
8.964
8.984
9
8.992
8.968
9
8.964
8.896
8.844
8.796
8.748
8.652
8.572
8.536
8.452
8.388
8.324
8.312
8.248
8.2
8.16
8.16
8.156
8.092
8.092
8.076
8.052
8.068
8.068
8.052
8.06
8.04
8.012
8.056
8.06
8.084
8.048
8.02
8.068
8.068
8.06
8.012
8.04
8.06
8.044
8.04
8.056
8.056
8.06
8.028
8.032
8.068
8.068
8.024
8.036
8.064
8.036
8.036
8.044
8.052
8.056
8.004
8.036
8.008
8.028
8.04
7.988
8.032
8.032
8.004
8
8.024
8.016
8.02
8.012
8.02
8.036
8.024
7.996
7.976
8.008
8.04
8
7.984
8.004
8.012
7.984
7.988
8.008
8.008
7.992
7.984
8.012
8.028
7.988
7.976
8.004
8.004
7.98
7.98
8
8.02
8.02
7.988
7.992
7.996
8.02
7.988
7.976
7.964
8.008
7.976
8.004
8.004
7.992
8
7.976
7.988
8
8
7.968
7.996
7.996
7.988
7.98
7.996
7.992
7.972
7.98
8
8.012
8.012
7.972
7.984
8.004
8.016
7.992
7.964
7.996
8.036
8.02
7.972
7.972
8.012
8.012
8.008
7.988
7.984
7.992
7.996
8.02
7.988
7.984
7.964
7.98
8.032
8.016
7.992
7.992
8.024
8.032
8
7.968
8.012
8.004
8.012
7.976
8
8.02
7.988
8
8.028
8.052
8.084
8.068
8.096
8.1
8.096
8.06
8.052
8.132
8.184
8.164
8.116
8.112
8.124
8.044
8.032
8.056
8.044
8.036
8
8.032
8.016
7.968
7.944
7.944
7.968
7.968
7.944
7.944
7.968
7.98
7.976
7.944
7.928
7.872
7.812
7.916
8.128
8.5
9.004
9.604
10.172
10.188
9.6
9.036
8.628
8.176
7.836
7.796
7.936
8.044
8.076
8.096
8.076
8.096
8.076
8.06
8.076
8.072
8.068
8.06
8.072
8.096
8.084
8.072
8.072
8.096
8.116
8.112
8.08
8.1
8.104
8.1
8.1
8.12
8.148
8.144
8.12
8.156
8.192
8.18
8.164
8.176
8.212
8.204
8.2
8.208
8.228
8.26
8.244
8.26
8.272
8.3
8.304
8.34
8.376
8.392
8.416
8.428
8.44
8.504
8.512
8.536
8.568
8.616
8.664
8.668
8.712
8.772
8.796
8.84
8.856
8.912
8.956
8.968
8.996
9.032
9.06
9.068
9.06
9.06
9.056
8.984
8.964
8.9
8.824
8.752
8.664
8.592
8.528
8.496
8.412
8.36
8.336
8.276
8.22
8.2
8.18
8.176
8.128
8.124
8.144
8.136
8.108
8.092
8.1
8.096
8.108
8.084
8.084
8.088
8.092
8.076
8.092
8.108
8.084
8.088
8.08
8.12
8.112
8.076
8.072
8.116
8.108
8.084
8.056
8.092
8.104
8.072
8.076
8.088
8.116
8.096
8.08
8.1
8.1
8.088
8.068
8.056
8.1
8.072
8.04
8.048
8.076
8.088
8.056
8.056
8.076
8.064
8.06
8.032
8.052
8.068
8.044
8.04
8.04
8.072
8.048
8.028
8.044
8.064
8.052
8.016
8.02
8.056
8.052
8.024
8.048
8.056
8.032
8.036
8.02
8.04
8.064
8.02
8.028
8.028
8.024
8.032
8.016
8.02
8.028
8.064
8.024
8.056
8.036
8.04
8.028
8.04
8.028
8.052
8.036
8.032
8.044
8.06
8.036
8.02
8.06
8.056
8.028
8.012
8.06
8.056
8.048
8.028
8.044
8.056
8.052
8.028
8.052
8.06
8.04
8.04
8.04
8.06
8.048
8.028
8.032
8.112
8.12
8.08
8.108
8.136
8.12
8.084
8.112
8.144
8.192
8.204
8.148
8.128
8.132
8.092
8.044
8.056
8.08
8.068
8.024
8.032
8.02
8.028
8
7.98
8.008
8
7.992
7.976
7.984
7.992
8.012
7.996
7.952
7.912
7.844
7.916
8.096
8.456
8.952
9.484
10.092
10.244
9.768
9.148
8.696
8.284
7.892
7.808
7.9
8.016
8.088
8.104
8.1
8.108
8.076
8.068
8.076
8.104
8.1
8.076
8.064
8.072
8.096
8.08
8.08
8.104
8.108
8.096
8.084
8.104
8.108
8.124
8.108
8.112
8.128
8.152
8.116
8.12
8.156
8.16
8.124
8.148
8.168
8.176
8.188
8.2
8.196
8.216
8.244
8.256
8.244
8.252
8.28
8.272
8.32
8.356
8.364
8.348
8.392
8.468
8.492
8.5
8.504
8.576
8.616
8.656
8.668
8.728
8.772
8.784
8.8
8.852
8.888
8.904
8.932
8.988
9.024
9.004
8.992
8.98
8.984
8.964
8.872
8.8
8.768
8.692
8.592
8.528
8.464
8.412
8.344
8.284
8.268
8.236
8.16
8.12
8.136
8.132
8.096
8.06
8.068
8.068
8.072
8.032
8.036
8.056
8.032
8.032
8.016
8.052
8.056
8.028
7.992
8.032
8.044
8.032
8.008
8.04
8.064
8.04
8.008
8.032
8.052
8.052
8.028
8.012
8.036
8.044
8.016
8.024
8.032
8.02
8.012
8.02
8.02
8.028
8.012
8.004
8.052
8.048
8.008
8.008
8.016
8.04
8
8.004
8.004
8.024
7.988
7.976
7.996
8.004
7.992
7.972
7.992
8.016
8.004
7.976
7.964
7.996
8
7.98
7.952
7.984
8.004
7.992
7.96
7.996
7.976
7.984
7.972
7.988
7.972
7.96
7.944
7.948
7.984
7.96
7.944
7.944
7.976
7.996
7.964
7.956
7.98
7.968
7.98
7.936
7.96
7.984
7.952
7.956
7.976
7.992
7.972
7.952
7.968
7.98
7.984
7.928
7.94
7.992
7.976
7.972
7.96
7.984
7.988
7.956
7.952
7.968
7.976
7.948
7.956
8.012
8.04
8.044
8.052
8.076
8.036
8.04
8.036
8.104
8.128
8.116
8.048
8.024
8.036
7.98
7.984
7.976
8.012
7.972
7.928
7.916
7.94
7.912
7.896
7.88
7.924
7.912
7.912
7.888
7.912
7.896
7.9
7.892
7.832
7.764
7.768
7.896
8.2
8.676
9.18
9.792
10.192
9.984
9.324
8.792
8.328
7.916
7.752
7.804
7.896
7.984
8.048
8.02
8.016
8.016
8.008
7.984
7.996
8
8.012
7.984
7.984
7.996
8.012
8.02
8.016
8.008
8.008
8.036
8
8.008
8.048
8.032
8.02
8.028
8.064
8.06
8.068
8.052
8.084
8.108
8.096
8.08
8.08
8.132
8.144
8.104
8.128
8.164
8.156
8.16
8.176
8.204
8.212
8.248
8.24
8.304
8.308
8.32
8.344
8.412
8.436
8.444
8.46
8.528
8.58
8.6
8.62
8.672
8.732
8.752
8.792
8.812
8.864
8.876
8.908
8.92
8.948
8.952
8.924
8.884
8.868
8.82
8.752
8.692
8.644
8.584
8.5
8.436
8.364
8.312
8.252
8.188
8.172
8.136
8.104
8.04
8.036
8.056
8.02
7.984
7.996
8.024
8.02
7.984
7.976
8
7.996
8
7.968
8.004
8.004
7.956
7.984
8.004
8.008
7.972
7.956
7.996
8.012
8.008
7.972
7.996
8.02
8.012
7.988
7.96
7.992
8.008
8
7.98
8.008
8.008
7.996
7.984
7.988
7.976
7.976
7.976
7.976
8
7.948
7.972
7.968
7.984
7.96
7.976
7.952
7.984
7.98
7.944
7.936
7.968
7.956
7.932
7.936
7.968
7.96
7.928
7.94
7.952
7.964
7.944
7.936
7.956
7.948
7.96
7.936
7.944
7.956
7.936
7.928
7.936
7.94
7.944
7.92
7.94
7.952
7.932
7.92
7.928
7.956
7.944
7.924
7.896
7.936
7.924
7.936
7.912
7.932
7.928
7.928
7.908
7.936
7.94
7.928
7.928
7.928
7.952
7.956
7.94
7.928
7.944
7.94
7.924
7.912
7.932
7.932
7.936
7.924
7.944
7.94
7.932
7.932
7.94
7.956
7.94
7.912
7.94
7.956
7.924
7.904
7.928
7.94
7.964
7.932
7.888
7.928
7.952
7.952
7.964
8.02
8.016
8.016
7.98
8.004
8.016
8.06
8.068
8.088
8.052
8.02
7.992
7.968
7.972
7.936
7.952
7.944
7.94
7.936
7.904
7.876
7.884
7.864
7.864
7.852
7.892
7.868
7.872
7.832
7.884
7.892
7.832
7.728
7.736
7.836
8.048
8.416
8.948
9.548
10.084
10.08
9.512
9
8.48
8.028
7.72
7.756
7.876
7.94
7.968
7.988
8.016
7.988
7.936
7.976
7.996
7.976
7.964
7.984
7.98
7.944
7.948
7.988
7.992
7.992
7.984
7.988
8.012
8.008
7.976
8
8.04
8.032
8.048
8.012
8.02
8.076
8.068
8.08
8.088
8.116
8.104
8.072
8.08
8.116
8.14
8.14
8.16
8.196
8.192
8.192
8.2
8.248
8.264
8.268
8.292
8.328
8.348
8.376
8.396
8.472
8.496
8.508
8.552
8.612
8.68
8.672
8.708
8.768
8.82
8.856
8.84
8.884
8.936
8.96
8.972
8.992
8.992
8.984
8.944
8.92
8.888
8.812
8.692
8.632
8.592
8.54
8.436
8.368
8.324
8.272
8.232
8.172
8.152
8.132
8.088
8.064
8.06
8.048
8.02
8.016
8
8.036
8.028
7.988
7.988
8.028
8.036
8.012
8.008
8.008
8.02
8
7.996
8.02
8.024
8.02
8.016
8.032
8.044
8.008
8.02
8.016
8.056
8.012
8.004
8.004
8.04
8.048
7.996
7.992
8.028
8.004
8.012
7.996
7.972
8.008
7.988
7.984
7.996
8
7.964
7.98
7.988
8.012
8.012
7.984
7.972
8.008
7.988
7.968
7.964
7.988
7.976
7.964
7.952
7.984
7.976
7.936
7.956
7.98
7.98
7.96
7.924
7.956
8
7.96
7.948
7.944
7.952
7.972
7.928
7.968
7.968
7.956
7.964
7.96
7.948
7.948
7.936
7.948
7.984
7.984
7.952
7.96
7.976
7.988
7.98
7.96
7.976
7.968
7.96
7.968
7.952
7.972
7.968
7.956
7.936
7.972
7.968
7.928
7.952
7.984
7.972
7.968
7.956
7.98
7.964
7.948
7.94
7.96
8
8.004
8.004
8.02
8.064
8.044
8.008
8.04
8.068
8.096
8.096
8.1
8.088
8.084
8.04
8.012
8.016
8.028
7.984
7.972
7.968
7.956
7.936
7.916
7.912
7.932
7.888
7.896
7.928
7.952
7.92
7.9
7.912
7.932
7.86
7.748
7.784
7.916
8.156
8.548
9.064
9.728
10.144
10
9.42
8.9
8.5
7.988
7.72
7.796
7.908
7.944
7.98
8.024
8.048
8.04
8.008
8.016
8.016
8.02
7.996
8.004
8.032
8.02
8.008
8.024
8.044
8.032
8.024
8.004
8.06
8.052
8.04
8.02
8.048
8.064
8.056
8.068
8.068
8.088
8.084
8.088
8.104
8.104
8.108
8.1
8.148
8.168
8.156
8.144
8.164
8.22
8.2
8.204
8.216
8.252
8.3
8.292
8.296
8.352
8.348
8.392
8.428
8.46
8.508
8.536
8.568
8.58
8.66
8.688
8.688
8.736
8.78
8.824
8.844
8.864
8.876
8.924
8.94
8.928
8.956
8.924
8.896
8.836
8.816
8.728
8.66
8.548
8.512
8.46
8.36
8.312
8.236
8.22
8.18
8.108
8.104
8.084
8.044
8.04
8.016
8.008
8.008
7.976
8
7.996
8.004
7.972
7.972
7.992
8.012
7.996
7.976
7.996
8.012
7.992
7.992
7.988
8.004
8.012
7.98
8.004
7.996
7.988
7.972
7.996
7.996
8.004
7.968
7.956
7.996
7.996
7.98
7.98
7.992
7.988
7.992
7.992
7.98
7.996
7.976
7.956
7.976
7.984
7.976
7.96
7.948
7.976
7.98
7.952
7.936
7.96
7.976
7.936
7.924
7.932
7.936
7.932
7.928
7.916
7.952
7.908
7.916
7.952
7.944
7.924
7.912
7.936
7.952
7.928
7.912
7.928
7.936
7.928
7.904
7.9
7.928
7.96
7.964
7.988
8.024
8.024
7.984
7.968
7.988
8.06
8.068
8.052
8.048
8.036
8
7.988
7.944
7.952
7.948
7.956
7.936
7.924
7.908
7.864
7.872
7.876
7.872
7.86
7.86
7.88
7.9
7.852
7.852
7.868
7.876
7.776
7.732
7.796
7.908
8.2
8.664
9.208
9.848
10.16
9.88
9.236
8.764
8.308
7.828
7.676
7.784
7.876
7.932
7.968
8
8.02
7.988
7.96
7.948
7.976
7.96
7.928
7.948
7.984
7.964
7.972
7.968
7.98
7.972
7.948
7.976
7.988
8
7.952
7.98
8
8
7.984
7.992
8.02
8.028
8.02
8.036
8.044
8.052
8.044
8.036
8.064
8.088
8.096
8.076
8.108
8.16
8.132
8.132
8.168
8.208
8.208
8.232
8.26
8.284
8.324
8.324
8.364
8.4
8.456
8.452
8.5
8.552
8.616
8.612
8.644
8.688
8.752
8.752
8.764
8.796
8.828
8.864
8.844
8.848
8.832
8.796
8.72
8.668
8.612
8.552
8.456
8.372
8.348
8.284
8.208
8.152
8.096
8.088
8.044
8.012
7.98
7.996
7.956
7.944
7.924
7.94
7.92
7.904
7.904
7.936
7.916
7.896
7.868
7.912
7.924
7.896
7.88
7.908
7.92
7.908
7.896
7.916
7.928
7.88
7.904
7.892
7.92
7.892
7.884
7.916
7.908
7.9
7.896
7.904
7.904
7.9
7.876
7.872
7.896
7.9
7.88
7.876
7.864
7.904
7.868
7.872
7.88
7.908
7.88
7.848
7.872
7.896
7.864
7.832
7.86
7.856
7.876
7.868
7.864
7.856
7.848
7.86
7.856
7.872
7.888
7.932
7.94
8.004
7.968
7.912
7.912
7.96
8.028
8.016
7.976
7.972
7.976
7.952
7.904
7.86
7.892
7.884
7.868
7.856
7.872
7.808
7.792
7.776
7.788
7.808
7.776
7.792
7.776
7.82
7.8
7.784
7.792
7.776
7.716
7.656
7.72
7.904
8.228
8.676
9.224
9.848
10.032
9.6
8.992
8.576
8.104
7.676
7.572
7.7
7.84
7.864
7.864
7.888
7.896
7.868
7.852
7.88
7.892
7.876
7.856
7.864
7.888
7.876
7.852
7.88
7.892
7.876
7.868
7.876
7.904
7.912
7.884
7.908
7.924
7.924
7.924
7.916
7.936
7.944
7.932
7.94
7.972
7.996
7.976
7.968
7.976
8.028
8.02
8.028
8.044
8.06
8.076
8.076
8.112
8.136
8.164
8.148
8.192
8.236
8.268
8.252
8.288
8.36
8.4
8.412
8.436
8.488
8.552
8.584
8.572
8.62
8.644
8.688
8.704
8.724
8.76
8.76
8.736
8.74
8.72
8.656
8.584
8.5
8.464
8.4
8.308
8.224
8.176
8.144
8.076
8.028
7.996
7.976
7.912
7.9
7.872
7.884
7.864
7.848
7.844
7.88
7.868
7.832
7.836
7.836
7.856
7.816
7.828
7.848
7.82
7.828
7.832
7.816
7.82
7.804
7.832
7.82
7.852
7.82
7.808
7.828
7.836
7.848
7.816
7.816
7.836
7.844
7.804
7.804
7.832
7.844
7.832
7.816
7.808
7.832
7.812
7.828
7.824
7.812
7.796
7.808
7.824
7.856
7.816
7.768
7.788
7.832
7.824
7.784
7.78
7.816
7.804
7.784
7.808
7.82
7.816
7.788
7.804
7.816
7.812
7.768
7.776
7.792
7.844
7.804
7.792
7.8
7.816
7.8
7.8
7.788
7.824
7.792
7.792
7.784
7.812
7.824
7.832
7.868
7.912
7.92
7.9
7.884
7.884
7.944
7.948
7.96
7.98
7.96
7.92
7.884
7.9
7.848
7.836
7.828
7.86
7.844
7.82
7.764
7.776
7.76
7.784
7.752
7.748
7.772
7.784
7.752
7.772
7.792
7.784
7.744
7.696
7.644
7.684
7.776
8.06
8.524
9.052
9.668
10.028
9.788
9.204
8.68
8.196
7.748
7.592
7.704
7.792
7.84
7.896
7.876
7.892
7.88
7.864
7.884
7.848
7.856
7.876
7.872
7.848
7.864
7.86
7.9
7.884
7.856
7.856
7.884
7.908
7.892
7.9
7.92
7.916
7.896
7.924
7.948
7.94
7.94
7.92
7.972
7.976
7.98
7.968
7.992
8.04
8.032
8.028
8.048
8.072
8.06
8.076
8.116
8.144
8.144
8.132
8.188
8.224
8.244
8.236
8.284
8.312
8.38
8.372
8.424
8.448
8.516
8.528
8.572
8.608
8.636
8.652
8.712
8.74
8.776
8.788
8.768
8.82
8.8
8.736
8.692
8.672
8.616
8.56
8.452
8.412
8.376
8.304
8.212
8.144
8.104
8.092
8.024
7.996
7.992
7.952
7.904
7.912
7.928
7.936
7.9
7.88
7.896
7.908
7.88
7.884
7.904
7.888
7.884
7.884
7.896
7.9
7.912
7.88
7.888
7.92
7.904
7.9
7.884
7.896
7.92
7.9
7.872
7.888
7.904
7.896
7.876
7.908
7.9
7.888
7.892
7.864
7.892
7.88
7.868
7.88
7.876
7.868
7.852
7.86
7.88
7.88
7.852
7.82
7.864
7.848
7.856
7.844
7.828
7.844
7.812
7.844
7.848
7.884
7.848
7.836
7.844
7.852
7.844
7.832
7.836
7.836
7.856
7.816
7.848
7.836
7.82
7.828
7.824
7.832
7.82
7.82
7.816
7.852
7.828
7.824
7.8
7.82
7.848
7.82
7.776
7.792
7.828
7.84
7.804
7.82
7.836
7.82
7.828
7.812
7.824
7.824
7.82
7.82
7.84
7.844
7.824
7.788
7.836
7.832
7.836
7.816
7.816
7.86
7.836
7.804
7.828
7.82
7.82
7.824
7.836
7.828
7.836
7.824
7.816
7.816
7.848
7.812
7.816
7.816
7.836
7.816
7.816
7.832
7.864
7.848
7.82
7.836
7.832
7.832
7.812
7.852
7.848
7.844
7.816
7.816
7.844
7.836
7.816
7.832
7.836
7.86
7.844
7.82
7.816
7.856
7.832
7.844
7.828
7.816
7.828
7.796
7.844
7.848
7.82
7.816
7.832
7.836
7.86
7.86
7.896
7.936
7.976
7.912
7.88
7.912
7.98
7.964
7.964
7.972
7.936
7.904
7.896
7.892
7.88
7.86
7.852
7.832
7.84
7.824
7.8
7.792
7.768
7.776
7.784
7.78
7.812
7.812
7.792
7.78
7.824
7.812
7.696
7.644
7.708
7.876
8.176
8.624
9.192
9.848
10.072
9.656
9.052
8.58
8.16
7.728
7.648
7.78
7.84
7.868
7.892
7.944
7.924
7.892
7.888
7.904
7.9
7.864
7.864
7.892
7.908
7.876
7.896
7.892
7.908
7.908
7.892
7.916
7.92
7.928
7.908
7.92
7.948
7.948
7.92
7.936
7.936
7.972
7.96
7.968
7.976
8.004
8.008
8.012
8.024
8.052
8.032
8.044
8.06
8.096
8.08
8.084
8.144
8.168
8.184
8.164
8.204
8.236
8.288
8.272
8.328
8.352
8.384
8.424
8.464
8.492
8.564
8.564
8.6
8.664
8.684
8.712
8.72
8.796
8.832
8.824
8.82
8.852
8.852
8.86
8.796
8.768
8.72
8.66
8.612
8.524
8.468
8.4
8.308
8.248
8.208
8.176
8.128
8.064
8.032
8.024
7.996
7.984
7.968
7.976
7.936
7.936
7.94
7.964
7.924
7.912
7.932
7.948
7.948
7.908
7.924
7.968
7.936
7.912
7.904
7.932
7.944
7.92
7.888
7.92
7.96
7.928
7.928
7.932
7.928
7.936
7.924
7.908
7.924
7.928
7.928
7.904
7.9
7.908
7.888
7.912
7.924
7.912
7.908
7.9
7.912
7.9
7.868
7.852
7.9
7.9
7.896
7.88
7.892
7.912
7.884
7.864
7.864
7.888
7.892
7.876
7.88
7.868
7.9
7.86
7.86
7.872
7.88
7.864
7.892
7.892
7.868
7.848
7.852
7.86
7.888
7.864
7.852
7.844
7.916
7.884
7.848
7.864
7.892
7.88
7.868
7.872
7.876
7.872
7.852
7.864
7.884
7.876
7.86
7.868
7.884
7.876
7.868
7.856
7.868
7.884
7.888
7.86
7.852
7.88
7.86
7.868
7.86
7.88
7.876
7.844
7.864
7.9
7.884
7.86
7.872
7.888
7.896
7.86
7.86
7.888
7.9
7.896
7.876
7.884
7.9
7.892
7.868
7.884
7.896
7.872
7.876
7.888
7.88
7.908
7.876
7.932
7.948
7.972
7.972
7.92
7.96
7.976
8.024
8.032
8.028
7.992
7.976
7.976
7.944
7.94
7.896
7.924
7.916
7.916
7.9
7.86
7.864
7.864
7.856
7.856
7.852
7.86
7.856
7.86
7.852
7.888
7.848
7.808
7.736
7.708
7.796
7.984
8.328
8.876
9.48
10.004
10.044
9.528
8.984
8.544
8.1
7.74
7.688
7.796
7.892
7.972
7.996
7.996
7.964
7.976
7.968
7.984
7.948
7.936
7.964
7.976
7.984
7.968
7.976
8.012
7.98
7.984
7.964
7.996
8.004
7.984
8.024
8.016
8.012
8.012
8.02
8.04
8.04
8.008
8.04
8.048
8.084
8.068
8.052
8.092
8.096
8.104
8.1
8.136
8.16
8.16
8.164
8.208
8.216
8.224
8.236
8.268
8.304
8.312
8.316
8.328
8.4
8.448
8.464
8.5
8.528
8.556
8.608
8.624
8.684
8.708
8.728
8.776
8.824
8.848
8.836
8.852
8.872
8.872
8.844
8.812
8.808
8.768
8.696
8.62
8.572
8.528
8.452
8.356
8.312
8.268
8.204
8.124
8.104
8.084
8.072
8.044
7.996
7.992
8.008
7.988
7.972
7.992
7.972
7.972
7.976
7.984
7.98
7.952
7.976
7.968
7.996
7.98
7.952
7.956
7.984
7.992
7.952
7.96
7.956
7.992
7.984
7.968
7.964
7.96
7.976
7.96
7.968
7.972
7.956
7.932
7.972
7.976
7.948
7.944
7.928
7.952
7.94
7.936
7.936
7.964
7.932
7.924
7.92
7.936
7.928
7.92
7.896
7.932
7.92
7.908
7.912
7.924
7.916
7.892
7.888
7.904
7.904
7.912
7.892
7.892
7.912
7.908
7.9
7.888
7.908
7.896
7.892
7.9
7.912
7.9
7.872
7.896
7.892
7.92
7.908
7.884
7.896
7.92
7.912
7.896
7.88
7.88
7.9
7.88
7.896
7.896
7.908
7.9
7.908
7.912
7.912
7.884
7.892
7.92
7.932
7.884
7.876
7.884
7.904
7.888
7.904
7.884
7.9
7.912
7.888
7.892
7.9
7.904
7.884
7.896
7.92
7.904
7.904
7.884
7.896
7.916
7.88
7.9
7.9
7.904
7.92
7.884
7.912
7.916
7.888
7.876
7.896
7.924
7.932
7.928
7.988
8.032
8.012
7.952
7.972
8.008
8.06
8.036
8.04
8.004
7.992
7.984
7.952
7.92
7.916
7.912
7.9
7.912
7.896
7.86
7.848
7.836
7.856
7.836
7.82
7.864
7.872
7.856
7.824
7.864
7.84
7.82
7.752
7.728
7.8
7.968
8.332
8.836
9.432
10
10.08
9.54
8.952
8.508
8.06
7.716
7.736
7.844
7.92
7.976
8
7.98
7.956
7.936
7.964
7.948
7.956
7.928
7.948
7.956
7.964
7.956
7.936
7.956
7.976
7.948
7.952
7.964
7.988
7.976
7.984
7.968
8.012
7.98
7.992
8.012
8.032
8.044
8.02
8.016
8.068
8.076
8.044
8.076
8.112
8.116
8.124
8.108
8.148
8.148
8.172
8.152
8.196
8.2
8.224
8.244
8.264
8.308
8.324
8.344
8.368
8.412
8.488
8.492
8.508
8.568
8.604
8.648
8.692
8.728
8.752
8.776
8.808
8.856
8.86
8.888
8.892
8.912
8.908
8.848
8.792
8.752
8.732
8.68
8.56
8.496
8.448
8.4
8.324
8.26
8.216
8.164
8.112
8.096
8.06
8.048
8.024
8.016
7.992
8.004
7.964
7.96
7.984
8
7.964
7.948
7.968
7.98
7.968
7.952
7.984
7.964
7.956
7.96
7.988
8
7.988
7.968
7.956
7.996
7.988
7.968
7.96
7.968
7.996
7.984
7.968
7.964
7.968
7.968
7.956
7.972
7.976
7.964
7.928
7.972
7.976
7.932
7.928
7.924
7.944
7.964
7.936
7.92
7.928
7.936
7.924
7.912
7.94
7.932
7.896
7.92
7.928
7.94
7.916
7.908
7.936
7.936
7.928
7.896
7.916
7.896
7.92
7.904
7.896
7.904
7.928
7.896
7.908
7.924
7.916
7.884
7.904
7.94
7.92
7.884
7.892
7.912
7.932
7.904
7.888
7.904
7.916
7.924
7.908
7.904
7.916
7.912
7.92
7.908
7.912
7.912
7.904
7.892
7.928
7.9
7.904
7.88
7.936
7.936
7.912
7.92
7.9
7.944
7.912
7.916
7.928
7.948
7.928
7.912
7.92
7.928
7.92
7.924
7.928
7.94
7.928
7.916
7.936
7.936
7.956
7.908
7.888
7.924
7.936
7.94
7.936
7.936
7.936
7.924
7.92
7.96
7.956
7.928
7.896
7.928
7.964
7.952
7.916
7.904
7.932
7.956
7.964
8.004
8.024
8.028
8.04
7.984
8.012
8.02
8.088
8.092
8.092
8.068
8.02
7.992
8
7.976
7.988
7.94
7.956
7.956
7.944
7.932
7.916
7.912
7.888
7.908
7.884
7.916
7.928
7.9
7.912
7.932
7.924
7.868
7.788
7.804
7.92
8.124
8.524
9.076
9.684
10.136
10.028
9.432
8.932
8.488
7.988
7.76
7.788
7.924
7.964
8.008
8.064
8.064
8.044
8.016
8.024
8.044
8.02
8.028
8.04
8.04
8.028
8.044
8.056
8.056
8.04
8.028
8.068
8.072
8.056
8.068
8.08
8.092
8.108
8.084
8.084
8.112
8.128
8.1
8.12
8.136
8.156
8.144
8.176
8.172
8.2
8.188
8.188
8.244
8.232
8.24
8.26
8.272
8.296
8.32
8.316
8.36
8.384
8.408
8.44
8.468
8.508
8.508
8.532
8.592
8.636
8.684
8.692
8.728
8.764
8.828
8.856
8.848
8.896
8.932
8.968
8.976
8.984
8.98
8.972
8.96
8.916
8.88
8.816
8.748
8.684
8.612
8.54
8.444
8.396
8.376
8.316
8.256
8.204
8.176
8.148
8.14
8.1
8.112
8.092
8.076
8.064
8.088
8.08
8.056
8.032
8.056
8.068
8.068
8.048
8.052
8.084
8.084
8.08
8.064
8.076
8.076
8.088
8.08
8.068
8.064
8.064
8.084
8.084
8.076
8.064
8.052
8.076
8.076
8.076
8.04
8.072
8.072
8.08
8.052
8.028
8.028
8.056
8.036
8.04
8.04
8.032
8.044
8.028
8.056
8.052
8.02
8
8.044
8.036
8.032
8.012
8.016
8.02
8.028
8.028
8.004
8.016
8.008
7.996
7.992
8.016
8.02
7.992
8
8.012
8.028
8.004
7.992
8.008
8.016
8.008
7.984
8.016
8.024
7.988
8.004
7.996
7.98
8.008
7.996
8.008
7.996
8.016
8
8
8.004
8.008
7.988
7.964
7.992
8.016
8
8
8
8.016
8.016
8
8
8
7.972
7.988
8.004
8.004
8.004
7.988
7.988
8.016
8.016
8
8
8.02
8.024
7.98
7.976
7.996
8.02
8.032
8.06
8.076
8.096
8.096
8.076
8.072
8.104
8.136
8.144
8.144
8.116
8.084
8.092
8.064
8.032
8.024
8.032
8.028
8.02
8.008
7.984
7.98
7.964
7.964
7.96
7.956
7.98
7.976
7.964
7.94
7.972
8.008
7.956
7.856
7.828
7.912
8.096
8.42
8.896
9.488
10.072
10.224
9.756
9.16
8.692
8.212
7.848
7.812
7.928
8.012
8.072
8.104
8.092
8.084
8.056
8.076
8.064
8.056
8.068
8.076
8.084
8.08
8.056
8.08
8.108
8.096
8.072
8.068
8.116
8.104
8.076
8.096
8.096
8.116
8.152
8.136
8.132
8.144
8.14
8.164
8.188
8.192
8.18
8.172
8.2
8.232
8.236
8.248
8.244
8.264
8.296
8.292
8.292
8.34
8.368
8.376
8.372
8.436
8.476
8.472
8.512
8.556
8.588
8.612
8.632
8.688
8.72
8.736
8.784
8.824
8.868
8.912
8.912
8.944
8.996
9.008
9.012
9.04
9.012
9.044
8.968
8.952
8.916
8.864
8.78
8.704
8.684
8.576
8.504
8.436
8.404
8.344
8.304
8.248
8.212
8.196
8.168
8.128
8.148
8.144
8.1
8.096
8.092
8.104
8.112
8.072
8.076
8.1
8.104
8.068
8.076
8.088
8.116
8.08
8.072
8.08
8.104
8.072
8.096
8.088
8.084
8.1
8.08
8.088
8.104
8.1
8.072
8.08
8.092
8.084
8.06
8.064
8.092
8.08
8.072
8.068
8.08
8.08
8.048
8.06
8.068
8.064
8.052
8.024
8.052
8.06
8.06
8.02
8.02
8.036
8.06
8.048
8.02
8.024
8.016
8.02
8.024
8.032
8.012
8.02
8.016
8.032
8.016
8.028
8.012
8.008
8.032
8.012
8.008
8.008
8.02
8.032
8.028
8.008
8
8.024
8.008
8.024
8.024
8.012
7.996
8.02
8.032
8.008
8.008
7.984
8
8.02
8.016
7.976
8
8.024
8
8.012
8.016
8.012
7.992
8.008
8
8.008
8.024
8.004
8.016
8.028
8.024
7.996
8
8.02
8.02
8.012
8
8.016
8.004
8.02
7.996
8.012
8.016
8.004
8
8.044
8.036
8.008
7.996
8.02
8.036
8.028
8.012
8.004
8.032
8.02
8.004
8.004
8.016
8.016
8.016
8
8
8
8.016
8.056
8.08
8.1
8.088
8.056
8.08
8.096
8.152
8.148
8.164
8.12
8.104
8.072
8.056
8.04
8.036
7.984
8.004
7.996
7.996
7.98
7.932
7.964
7.948
7.96
7.928
7.936
7.984
7.952
7.94
7.956
7.952
7.908
7.836
7.824
7.932
8.16
8.564
9.068
9.66
10.176
10.136
9.524
9.004
8.536
8.068
7.776
7.856
7.984
8.06
8.084
8.084
8.084
8.064
8.048
8.084
8.064
8.04
8.044
8.064
8.08
8.064
8.056
8.06
8.08
8.084
8.056
8.064
8.084
8.096
8.092
8.084
8.096
8.132
8.108
8.112
8.136
8.148
8.124
8.132
8.16
8.18
8.168
8.164
8.156
8.204
8.216
8.188
8.228
8.224
8.26
8.272
8.288
8.32
8.316
8.348
8.352
8.392
8.432
8.444
8.472
8.504
8.564
8.572
8.608
8.664
8.704
8.732
8.764
8.78
8.84
8.876
8.888
8.936
8.956
9
9.012
9.016
9.012
8.996
8.952
8.94
8.892
8.86
8.792
8.72
8.652
8.592
8.524
8.44
8.388
8.344
8.268
8.252
8.212
8.18
8.152
8.144
8.12
8.144
8.092
8.084
8.072
8.096
8.1
8.092
8.052
8.056
8.08
8.08
8.052
8.092
8.1
8.08
8.088
8.08
8.092
8.088
8.064
8.096
8.112
8.108
8.088
8.072
8.084
8.104
8.076
8.084
8.108
8.076
8.092
8.08
8.104
8.108
8.068
8.076
8.096
8.092
8.08
8.076
8.084
8.104
8.08
8.08
8.064
8.084
8.092
8.076
8.072
8.088
8.072
8.064
8.072
8.084
8.084
8.044
8.044
8.092
8.072
8.056
8.048
8.06
8.08
8.064
8.032
8.052
8.084
8.072
8.064
8.04
8.06
8.064
8.04
8.052
8.068
8.072
8.06
8.06
8.068
8.072
8.064
8.048
8.072
8.08
8.064
8.028
8.072
8.06
8.064
8.064
8.056
8.076
8.064
8.04
8.064
8.072
8.08
8.032
8.04
8.084
8.08
8.064
8.036
8.072
8.08
8.076
8.06
8.064
8.064
8.048
8.064
8.064
8.092
8.068
8.04
8.064
8.104
8.052
8.048
8.072
8.056
8.088
8.052
8.06
8.06
8.092
8.06
8.06
8.072
8.096
8.052
8.076
8.072
8.068
8.06
8.048
8.084
8.128
8.124
8.12
8.156
8.164
8.152
8.128
8.148
8.208
8.224
8.204
8.18
8.18
8.148
8.1
8.1
8.12
8.132
8.1
8.072
8.096
8.08
8.032
8.024
8.032
8.056
8.052
8.044
8.024
8.052
8.064
8.044
8.028
8.008
7.904
7.888
7.992
8.212
8.584
9.096
9.696
10.24
10.232
9.652
9.108
8.668
8.232
7.932
7.88
7.988
8.1
8.144
8.176
8.172
8.156
8.152
8.136
8.136
8.18
8.144
8.14
8.156
8.16
8.172
8.16
8.136
8.18
8.18
8.168
8.176
8.196
8.188
8.172
8.18
8.18
8.18
8.192
8.188
8.22
8.248
8.24
8.228
8.232
8.276
8.28
8.256
8.272
8.284
8.312
8.328
8.344
8.336
8.36
8.368
8.38
8.416
8.44
8.444
8.464
8.52
8.532
8.536
8.568
8.628
8.676
8.696
8.728
8.76
8.812
8.824
8.892
8.904
8.952
8.976
8.976
9.04
9.068
9.108
9.088
9.088
9.092
9.084
9.004
8.984
8.928
8.852
8.8
8.712
8.644
8.604
8.5
8.452
8.396
8.372
8.312
8.264
8.24
8.228
8.2
8.18
8.156
8.156
8.172
8.16
8.14
8.132
8.148
8.152
8.14
8.164
8.16
8.148
8.14
8.144
8.164
8.16
8.156
8.164
8.184
8.14
8.136
8.124
8.12
8.176
8.136
8.128
8.152
8.152
8.136
8.14
8.144
8.148
8.124
8.124
8.116
8.136
8.104
8.096
8.1
8.132
8.124
8.084
8.116
8.112
8.116
8.1
8.096
8.104
8.104
8.076
8.064
8.116
8.108
8.092
8.076
8.08
8.096
8.068
8.048
8.056
8.1
8.072
8.052
8.08
8.084
8.068
8.06
8.076
8.064
8.064
8.06
8.064
8.072
8.056
8.048
8.06
8.088
8.08
8.052
8.048
8.06
8.088
8.06
8.048
8.044
8.08
8.048
8.056
8.068
8.06
8.036
8.028
8.048
8.052
8.036
8.032
8.032
8.064
8.076
8.024
8.044
8.06
8.056
8.044
8.016
8.044
8.04
8.044
8.036
8.06
8.068
8.032
8.028
8.04
8.06
8.036
8.032
8.032
8.056
8.084
8.112
8.1
8.148
8.144
8.108
8.108
8.152
8.192
8.208
8.168
8.164
8.152
8.116
8.088
8.1
8.104
8.08
8.072
8.072
8.068
8.028
8.036
8.012
8.028
8.024
8.012
8
8.028
7.988
8.016
8.024
8.036
7.98
7.88
7.88
7.976
8.204
8.596
9.092
9.696
10.248
10.24
9.672
9.1
8.648
8.184
7.84
7.876
8.024
8.092
8.12
8.156
8.164
8.14
8.08
8.104
8.148
8.132
8.12
8.12
8.14
8.136
8.12
8.116
8.132
8.132
8.12
8.116
8.136
8.16
8.152
8.136
8.164
8.196
8.18
8.16
8.176
8.188
8.188
8.192
8.188
8.2
8.24
8.228
8.248
8.26
8.272
8.272
8.28
8.312
8.32
8.32
8.336
8.368
8.396
8.416
8.412
8.44
8.484
8.504
8.54
8.548
8.588
8.644
8.664
8.716
8.78
8.8
8.8
8.836
8.904
8.936
8.964
8.964
9.02
9.064
9.068
9.048
9.048
9.056
9.012
8.956
8.928
8.868
8.8
8.736
8.672
8.592
8.512
8.436
8.364
8.364
8.288
8.248
8.204
8.212
8.2
8.168
8.112
8.116
8.136
8.132
8.1
8.096
8.112
8.116
8.116
8.112
8.108
8.084
8.084
8.08
8.096
8.116
8.076
8.072
8.104
8.12
8.1
8.076
8.104
8.108
8.104
8.1
8.08
8.116
8.096
8.076
8.088
8.112
8.104
8.084
8.076
8.116
8.088
8.088
8.068
8.088
8.1
8.068
8.064
8.072
8.072
8.048
8.052
8.068
8.072
8.068
8.068
8.072
8.08
8.036
8.052
8.068
8.092
8.056
8.04
8.032
8.076
8.072
8.056
8.04
8.048
8.06
8.052
8.044
8.036
8.06
8.016
8.016
8.048
8.072
8.016
8.036
8.04
8.052
8.056
8.044
8.016
8.048
8.06
8.048
8.048
8.06
8.06
8.032
8.048
8.04
8.044
8.044
8.016
8.076
8.06
8.016
8.032
8.06
8.044
8.032
8.036
8.032
8.056
8.056
8.044
8.044
8.02
8.036
8.024
8.024
8.068
8.052
8.032
8.056
8.064
8.048
8.044
8.036
8.056
8.072
8.044
8.036
8.048
8.036
8.04
8.004
8.056
8.048
8.04
8.048
8.044
8.072
8.04
8.032
8.02
8.072
8.084
8.088
8.088
8.116
8.16
8.124
8.128
8.128
8.172
8.172
8.22
8.244
8.192
8.124
8.108
8.116
8.128
8.08
8.064
8.088
8.092
8.06
8.016
8.008
8.02
8.016
8.012
8.028
8.008
8.016
8.02
8.04
8.044
8.04
7.964
7.908
7.928
8.04
8.26
8.672
9.208
9.848
10.316
10.184
9.584
9.04
8.576
8.132
7.888
7.98
8.076
8.14
8.176
8.208
8.2
8.188
8.168
8.156
8.184
8.164
8.164
8.144
8.176
8.172
8.164
8.168
8.172
8.192
8.164
8.2
8.196
8.204
8.184
8.192
8.224
8.232
8.196
8.236
8.216
8.256
8.248
8.24
8.26
8.284
8.28
8.276
8.3
8.292
8.3
8.316
8.324
8.34
8.36
8.348
8.404
8.424
8.432
8.42
8.464
8.488
8.508
8.532
8.556
8.616
8.648
8.648
8.704
8.772
8.8
8.796
8.84
8.9
8.968
8.952
8.956
9.012
9.068
9.084
9.096
9.104
9.124
9.104
9.072
9.016
8.988
8.932
8.868
8.804
8.736
8.656
8.584
8.532
8.496
8.432
8.352
8.332
8.308
8.296
8.248
8.204
8.216
8.192
8.204
8.184
8.176
8.176
8.184
8.156
8.184
8.16
8.152
8.16
8.164
8.176
8.192
8.168
8.176
8.16
8.176
8.152
8.156
8.176
8.184
8.176
8.164
8.18
8.176
8.18
8.144
8.18
8.168
8.16
8.148
8.164
8.18
8.188
8.152
8.148
8.152
8.16
8.156
8.14
8.144
8.144
8.148
8.124
8.16
8.14
8.104
8.132
8.164
8.16
8.132
8.116
8.108
8.148
8.132
8.128
8.132
8.128
8.136
8.12
8.104
8.116
8.132
8.112
8.108
8.104
8.1
8.1
8.1
8.092
8.124
8.088
8.08
8.088
8.108
8.104
8.08
8.104
8.108
8.096
8.096
8.084
8.104
8.116
8.088
8.08
8.108
8.1
8.072
8.064
8.1
8.096
8.076
8.076
8.088
8.088
8.092
8.084
8.092
8.092
8.072
8.06
8.092
8.1
8.056
8.072
8.084
8.096
8.096
8.064
8.068
8.096
8.112
8.104
8.068
8.096
8.088
8.076
8.116
8.14
8.16
8.16
8.172
8.184
8.156
8.152
8.212
8.252
8.28
8.244
8.204
8.196
8.192
8.14
8.156
8.144
8.156
8.108
8.1
8.104
8.084
8.084
8.044
8.06
8.096
8.096
8.072
8.06
8.096
8.108
8.104
8.048
7.988
7.928
8.004
8.136
8.472
8.956
9.556
10.18
10.372
9.976
9.4
8.904
8.44
8.052
7.956
8
8.076
8.188
8.22
8.208
8.216
8.208
8.22
8.192
8.212
8.208
8.216
8.204
8.208
8.232
8.236
8.212
8.216
8.212
8.24
8.248
8.24
8.248
8.264
8.268
8.248
8.272
8.264
8.308
8.292
8.276
8.304
8.324
8.3
8.312
8.332
8.336
8.336
8.352
8.368
8.4
8.412
8.408
8.436
8.46
8.468
8.468
8.492
8.524
8.564
8.552
8.604
8.624
8.668
8.68
8.736
8.776
8.816
8.852
8.856
8.9
8.96
8.988
9.016
9.044
9.096
9.112
9.124
9.148
9.184
9.172
9.124
9.112
9.092
9.048
8.976
8.896
8.832
8.784
8.684
8.616
8.56
8.52
8.452
8.4
8.352
8.332
8.28
8.264
8.252
8.212
8.244
8.192
8.216
8.212
8.224
8.176
8.184
8.204
8.196
8.192
8.176
8.176
8.22
8.196
8.172
8.216
8.22
8.204
8.188
8.2
8.216
8.18
8.188
8.192
8.196
8.208
8.168
8.168
8.192
8.192
8.196
8.192
8.196
8.2
8.184
8.168
8.18
8.192
8.16
8.172
8.172
8.184
8.184
8.148
8.164
8.18
8.176
8.164
8.144
8.18
8.176
8.136
8.12
8.156
8.156
8.14
8.152
8.152
8.144
8.148
8.132
8.16
8.152
8.132
8.128
8.156
8.168
8.136
8.136
8.136
8.172
8.152
8.144
8.136
8.148
8.148
8.144
8.14
8.124
8.132
8.116
8.124
8.16
8.132
8.116
8.14
8.192
8.224
8.212
8.204
8.212
8.2
8.2
8.236
8.268
8.288
8.268
8.228
8.216
8.208
8.168
8.144
8.144
8.144
8.168
8.128
8.104
8.1
8.08
8.084
8.072
8.088
8.1
8.092
8.072
8.092
8.076
8.084
8.084
8.044
7.964
7.96
8.048
8.308
8.74
9.256
9.84
10.316
10.212
9.644
9.056
8.6
8.164
7.916
7.96
8.052
8.148
8.204
8.212
8.184
8.188
8.18
8.184
8.148
8.176
8.188
8.172
8.156
8.188
8.188
8.2
8.172
8.196
8.192
8.2
8.2
8.208
8.204
8.224
8.204
8.188
8.248
8.26
8.232
8.208
8.24
8.296
8.276
8.276
8.292
8.284
8.296
8.324
8.332
8.348
8.348
8.324
8.364
8.408
8.424
8.416
8.432
8.48
8.528
8.52
8.516
8.56
8.628
8.648
8.656
8.712
8.736
8.784
8.808
8.864
8.868
8.904
8.956
8.988
9.024
9.056
9.068
9.088
9.108
9.104
9.08
9.036
9.032
8.976
8.9
8.836
8.776
8.716
8.624
8.54
8.508
8.464
8.38
8.332
8.316
8.284
8.26
8.224
8.216
8.212
8.188
8.168
8.144
8.188
8.176
8.168
8.144
8.164
8.16
8.148
8.16
8.168
8.14
8.152
8.136
8.176
8.188
8.156
8.164
8.152
8.192
8.172
8.16
8.152
8.168
8.176
8.16
8.156
8.16
8.176
8.156
8.168
8.188
8.152
8.14
8.16
8.152
8.172
8.16
8.136
8.14
8.168
8.164
8.124
8.136
8.14
8.128
8.136
8.108
8.12
8.128
8.124
8.116
8.14
8.128
8.132
8.092
8.12
8.128
8.116
8.108
8.092
8.12
8.12
8.1
8.116
8.104
8.076
8.092
8.116
8.116
8.1
8.08
8.1
8.136
8.116
8.088
8.088
8.088
8.104
8.092
8.1
8.1
8.1
8.104
8.088
8.092
8.092
8.112
8.136
8.16
8.168
8.18
8.192
8.18
8.192
8.184
8.216
8.244
8.272
8.228
8.16
8.148
8.148
8.136
8.112
8.144
8.144
8.108
8.088
8.072
8.088
8.068
8.028
8.032
8.052
8.104
8.056
8.036
8.02
8.06
8.052
8
7.924
7.904
7.98
8.088
8.48
8.996
9.532
10.144
10.284
9.844
9.248
8.772
8.296
7.936
7.892
7.988
8.06
8.128
8.16
8.172
8.14
8.148
8.148
8.116
8.124
8.148
8.124
8.128
8.124
8.12
8.124
8.148
8.12
8.124
8.14
8.176
8.156
8.144
8.152
8.188
8.168
8.172
8.204
8.22
8.196
8.176
8.228
8.244
8.24
8.252
8.248
8.28
8.288
8.256
8.276
8.32
8.344
8.332
8.336
8.376
8.392
8.408
8.404
8.452
8.488
8.484
8.484
8.552
8.604
8.616
8.628
8.692
8.752
8.764
8.776
8.832
8.868
8.924
8.916
8.956
8.984
9.02
9.02
9.036
9.056
9.048
9
8.976
8.928
8.888
8.792
8.712
8.652
8.628
8.508
8.472
8.388
8.36
8.316
8.268
8.232
8.228
8.208
8.156
8.164
8.196
8.16
8.124
8.132
8.12
8.156
8.124
8.104
8.12
8.128
8.116
8.124
8.128
8.132
8.136
8.152
8.132
8.144
8.128
8.076
8.132
8.144
8.148
8.116
8.112
8.136
8.144
8.12
8.112
8.136
8.136
8.116
8.108
8.116
8.12
8.128
8.12
8.124
8.108
8.116
8.092
8.108
8.12
8.116
8.1
8.088
8.108
8.096
8.068
8.076
8.112
8.1
8.068
8.088
8.092
8.088
8.096
8.072
8.096
8.076
8.076
8.06
8.076
8.092
8.064
8.06
8.048
8.052
8.064
8.056
8.052
8.076
8.056
8.036
8.072
8.064
8.072
8.024
8.052
8.076
8.052
8.052
8.036
8.056
8.072
8.04
8.012
8.036
8.06
8.08
8.032
8.028
8.052
8.06
8.02
8.048
8.048
8.044
8.04
8.016
8.056
8.048
8.024
8.028
8.04
8.068
8.084
8.112
8.132
8.176
8.132
8.096
8.112
8.192
8.216
8.204
8.176
8.156
8.136
8.112
8.072
8.08
8.092
8.064
8.048
8.056
8.056
8.004
7.976
8.004
8.008
7.996
8.008
8.004
8.008
8
7.98
8.004
8.028
7.936
7.844
7.88
8.024
8.248
8.692
9.208
9.86
10.264
10.06
9.412
8.912
8.496
8.024
7.812
7.892
7.976
8.056
8.084
8.104
8.136
8.08
8.056
8.096
8.1
8.1
8.076
8.08
8.116
8.108
8.084
8.104
8.128
8.108
8.104
8.12
8.128
8.132
8.112
8.12
8.148
8.176
8.116
8.148
8.176
8.2
8.172
8.188
8.192
8.208
8.208
8.22
8.244
8.276
8.284
8.284
8.28
8.332
8.312
8.3
8.348
8.38
8.424
8.392
8.416
8.48
8.508
8.54
8.56
8.616
8.644
8.676
8.692
8.74
8.784
8.82
8.84
8.908
8.932
8.964
8.976
9
9.076
9.104
9.08
9.072
9.076
9.06
8.996
8.964
8.92
8.856
8.764
8.708
8.632
8.56
8.48
8.424
8.408
8.36
8.304
8.248
8.236
8.228
8.232
8.184
8.18
8.176
8.164
8.152
8.16
8.152
8.156
8.144
8.14
8.18
8.156
8.148
8.148
8.168
8.184
8.168
8.152
8.156
8.164
8.172
8.172
8.152
8.16
8.172
8.164
8.156
8.168
8.152
8.148
8.152
8.144
8.16
8.156
8.152
8.156
8.168
8.132
8.12
8.144
8.144
8.124
8.108
8.128
8.128
8.128
8.1
8.12
8.144
8.116
8.108
8.116
8.132
8.128
8.104
8.08
8.124
8.104
8.112
8.104
8.096
8.1
8.092
8.084
8.088
8.076
8.104
8.056
8.116
8.116
8.084
8.064
8.088
8.092
8.1
8.04
8.06
8.1
8.1
8.092
8.072
8.084
8.096
8.076
8.068
8.092
8.088
8.084
8.08
8.128
8.096
8.076
8.06
8.076
8.096
8.1
8.068
8.076
8.096
8.132
8.144
8.156
8.196
8.184
8.164
8.152
8.2
8.26
8.228
8.14
8.208
8.2
8.172
8.116
8.12
8.14
8.124
8.1
8.084
8.092
8.08
8.04
8.056
8.052
8.056
8.032
8.036
8.036
8.052
8.032
8.012
8.06
8.028
7.932
7.868
7.964
8.18
8.54
9.008
9.604
10.18
10.264
9.76
9.172
8.764
8.28
7.908
7.884
8.008
8.064
8.12
8.164
8.196
8.172
8.136
8.112
8.156
8.148
8.144
8.124
8.152
8.148
8.152
8.148
8.144
8.164
8.148
8.136
8.184
8.192
8.188
8.16
8.164
8.204
8.208
8.184
8.192
8.2
8.212
8.188
8.2
8.244
8.24
8.236
8.252
8.26
8.292
8.268
8.288
8.324
8.344
8.324
8.336
8.38
8.436
8.452
8.42
8.456
8.504
8.544
8.56
8.568
8.624
8.656
8.672
8.728
8.78
8.796
8.82
8.844
8.896
8.948
8.96
8.972
9
9.064
9.056
9.048
9.028
9.036
8.996
8.936
8.892
8.852
8.768
8.66
8.604
8.58
8.512
8.452
8.384
8.352
8.324
8.252
8.216
8.232
8.2
8.2
8.148
8.16
8.168
8.164
8.128
8.14
8.172
8.156
8.14
8.14
8.172
8.156
8.136
8.136
8.184
8.188
8.136
8.148
8.192
8.164
8.164
8.156
8.168
8.164
8.148
8.144
8.168
8.176
8.124
8.144
8.16
8.172
8.156
8.12
8.144
8.148
8.156
8.128
8.136
8.144
8.116
8.112
8.128
8.148
8.144
8.104
8.088
8.14
8.14
8.12
8.088
8.104
8.128
8.124
8.088
8.124
8.096
8.136
8.084
8.104
8.128
8.084
8.104
8.096
8.124
8.104
8.08
8.092
8.116
8.12
8.076
8.076
8.096
8.104
8.092
8.076
8.064
8.08
8.108
8.084
8.068
8.104
8.076
8.044
8.052
8.076
8.072
8.056
8.084
8.088
8.092
8.06
8.072
8.104
8.108
8.084
8.06
8.096
8.112
8.08
8.06
8.1
8.112
8.1
8.084
8.108
8.12
8.088
8.076
8.076
8.112
8.096
8.072
8.076
8.1
8.104
8.096
8.084
8.096
8.088
8.088
8.088
8.108
8.104
8.096
8.064
8.112
8.12
8.096
8.072
8.096
8.12
8.092
8.076
8.088
8.1
8.128
8.132
8.144
8.176
8.176
8.188
8.16
8.172
8.192
8.22
8.22
8.272
8.212
8.18
8.152
8.14
8.144
8.144
8.108
8.104
8.132
8.112
8.06
8.056
8.056
8.064
8.052
8.052
8.084
8.068
8.06
8.052
8.088
8.06
7.968
7.904
7.936
8.06
8.3
8.708
9.256
9.904
10.304
10.132
9.552
9.036
8.576
8.104
7.892
7.996
8.08
8.104
8.16
8.188
8.2
8.144
8.136
8.164
8.176
8.136
8.132
8.14
8.152
8.152
8.16
8.156
8.184
8.16
8.16
8.176
8.188
8.188
8.172
8.188
8.22
8.224
8.196
8.184
8.212
8.204
8.208
8.208
8.26
8.248
8.248
8.248
8.276
8.312
8.284
8.288
8.316
8.344
8.332
8.332
8.352
8.404
8.428
8.428
8.456
8.492
8.516
8.516
8.572
8.592
8.616
8.656
8.692
8.764
8.784
8.776
8.808
8.892
8.944
8.928
8.952
9.012
9.044
9.056
9.044
9.084
9.1
9.068
9.032
8.984
8.956
8.88
8.8
8.752
8.704
8.612
8.532
8.452
8.432
8.408
8.328
8.28
8.292
8.268
8.212
8.188
8.18
8.204
8.176
8.148
8.164
8.172
8.128
8.14
8.148
8.172
8.176
8.148
8.148
8.168
8.172
8.14
8.132
8.164
8.144
8.144
8.136
8.156
8.164
8.148
8.14
8.164
8.152
8.132
8.124
8.152
8.16
8.152
8.116
8.112
8.136
8.14
8.112
8.096
8.124
8.12
8.112
8.104
8.136
8.104
8.104
8.068
8.112
8.128
8.076
8.08
8.108
8.104
8.076
8.064
8.088
8.124
8.112
8.08
8.064
8.104
8.072
8.064
8.068
8.068
8.084
8.088
8.076
8.08
8.088
8.076
8.072
8.08
8.076
8.076
8.06
8.072
8.072
8.088
8.056
8.064
8.084
8.084
8.048
8.056
8.06
8.08
8.044
8.032
8.072
8.084
8.052
8.04
8.076
8.068
8.068
8.064
8.076
8.068
8.068
8.08
8.076
8.088
8.064
8.06
8.088
8.104
8.072
8.044
8.056
8.076
8.084
8.064
8.048
8.08
8.076
8.072
8.064
8.068
8.064
8.06
8.052
8.072
8.096
8.076
8.064
8.084
8.08
8.076
8.072
8.064
8.088
8.068
8.06
8.068
8.08
8.068
8.072
8.08
8.108
8.144
8.144
8.152
8.196
8.164
8.108
8.128
8.224
8.26
8.232
8.168
8.172
8.184
8.136
8.096
8.084
8.124
8.092
8.072
8.064
8.048
8.024
8.004
7.996
8.052
8.016
8.004
8.004
8.036
8.044
8
8.004
7.992
7.92
7.884
7.956
8.144
8.528
9.016
9.604
10.184
10.256
9.704
9.128
8.7
8.244
7.888
7.856
7.964
8.084
8.144
8.14
8.124
8.116
8.132
8.112
8.128
8.132
8.132
8.116
8.112
8.14
8.144
8.128
8.096
8.128
8.16
8.136
8.112
8.132
8.18
8.16
8.156
8.14
8.164
8.18
8.172
8.176
8.204
8.18
8.168
8.188
8.232
8.256
8.228
8.232
8.244
8.284
8.264
8.268
8.324
8.328
8.34
8.344
8.36
8.4
8.424
8.428
8.448
8.484
8.532
8.544
8.588
8.624
8.644
8.684
8.712
8.752
8.808
8.816
8.836
8.896
8.952
8.972
9.004
9.024
9.044
9.036
9.028
9.028
9.04
8.992
8.94
8.892
8.848
8.772
8.668
8.588
8.544
8.5
8.408
8.364
8.316
8.28
8.236
8.208
8.192
8.184
8.136
8.132
8.132
8.14
8.12
8.092
8.1
8.124
8.12
8.08
8.076
8.088
8.124
8.124
8.1
8.112
8.12
8.136
8.092
8.104
8.116
8.108
8.1
8.124
8.128
8.104
8.12
8.116
8.12
8.112
8.104
8.092
8.116
8.104
8.096
8.088
8.092
8.1
8.084
8.092
8.08
8.112
8.088
8.076
8.072
8.1
8.072
8.08
8.08
8.104
8.076
8.06
8.068
8.044
8.076
8.06
8.048
8.072
8.052
8.056
8.056
8.064
8.08
8.016
8.04
8.064
8.06
8.02
8.04
8.056
8.064
8.024
8.016
8.056
8.052
8.04
8.024
8.048
8.056
8.052
8.04
8.048
8.072
8.044
8.028
8.008
8.064
8.036
8.012
8.024
8.04
8.044
8.044
8.032
8.048
8.06
8.044
8.032
8.04
8.06
8.048
8.032
8.044
8.064
8.04
8.024
8.016
8.04
8.056
8.036
8.024
8.056
8.056
8.048
8.032
8.04
8.056
8.04
8.028
8.048
8.036
8.048
8.032
8.04
8.064
8.056
8.024
8.036
8.052
8.044
8.028
8.036
8.06
8.056
8.04
8.036
8.052
8.084
8.08
8.104
8.136
8.168
8.096
8.088
8.136
8.192
8.196
8.168
8.144
8.152
8.132
8.08
8.064
8.08
8.06
8.032
8.048
8.048
8.028
7.976
7.948
7.98
8
7.952
7.948
7.996
7.988
7.984
7.972
7.992
7.936
7.868
7.848
7.94
8.168
8.536
9.024
9.64
10.204
10.172
9.596
9.052
8.62
8.16
7.832
7.844
7.98
8.048
8.096
8.092
8.128
8.124
8.092
8.088
8.084
8.096
8.076
8.084
8.076
8.096
8.072
8.084
8.088
8.108
8.104
8.08
8.084
8.12
8.132
8.108
8.096
8.14
8.156
8.14
8.128
8.16
8.192
8.168
8.136
8.176
8.192
8.192
8.196
8.208
8.24
8.236
8.22
8.244
8.296
8.288
8.312
8.32
8.352
8.356
8.408
8.408
8.448
8.472
8.472
8.504
8.556
8.624
8.616
8.664
8.712
8.776
8.784
8.78
8.836
8.896
8.932
8.928
8.952
9.028
9.036
9.016
9.032
9.028
8.992
8.948
8.884
8.872
8.828
8.728
8.628
8.588
8.524
8.46
8.376
8.332
8.292
8.244
8.204
8.18
8.168
8.136
8.104
8.132
8.136
8.108
8.076
8.092
8.112
8.104
8.064
8.068
8.1
8.104
8.084
8.056
8.084
8.104
8.084
8.06
8.076
8.092
8.064
8.06
8.088
8.1
8.096
8.06
8.076
8.108
8.076
8.072
8.084
8.076
8.084
8.072
8.052
8.084
8.072
8.04
8.044
8.072
8.072
8.032
8.04
8.056
8.072
8.032
8.016
8.032
8.044
8.052
8.02
8.016
8.048
8.044
8.04
8.02
8.016
8.024
8.012
8.012
8.044
8.024
8.028
7.984
8.012
8.04
8.016
8.02
8.02
8.032
8.028
8.008
7.996
8.032
8.004
7.996
7.996
8.024
8.004
7.984
8.008
8.048
8.028
8.008
7.976
8.032
8.024
8.004
7.976
8.02
8.04
8.008
8.004
8.02
8.016
8
8.008
7.98
8.016
8.004
8.004
7.992
8.044
8.012
7.984
8.008
8.024
8.032
8.008
7.988
7.984
8.02
7.996
7.984
7.984
8.008
7.988
7.988
8.008
8.008
8.004
7.984
8.008
8.004
8
7.964
8.012
8.016
8.016
7.984
8.004
8.008
8.028
8.036
8.064
8.084
8.124
8.088
8.052
8.084
8.128
8.148
8.152
8.14
8.148
8.1
8.04
8.024
8.056
8.052
8.016
8
8.004
7.992
7.972
7.956
7.94
7.94
7.944
7.948
7.952
7.972
7.936
7.936
7.976
7.972
7.88
7.792
7.828
7.98
8.236
8.696
9.216
9.884
10.212
9.944
9.328
8.86
8.392
7.944
7.756
7.88
7.976
8.016
8.036
8.104
8.096
8.048
8.048
8.064
8.044
8.04
8.024
8.048
8.068
8.052
8.048
8.052
8.084
8.048
8.048
8.06
8.096
8.08
8.064
8.08
8.1
8.104
8.084
8.096
8.112
8.136
8.112
8.116
8.112
8.132
8.156
8.14
8.192
8.2
8.2
8.196
8.196
8.244
8.228
8.252
8.26
8.312
8.32
8.324
8.344
8.392
8.416
8.428
8.456
8.512
8.532
8.54
8.576
8.64
8.684
8.704
8.712
8.772
8.84
8.856
8.852
8.904
8.96
8.94
8.984
8.968
8.972
8.96
8.908
8.904
8.868
8.804
8.684
8.624
8.604
8.52
8.412
8.368
8.296
8.288
8.216
8.192
8.136
8.136
8.108
8.068
8.084
8.052
8.04
8.028
8.048
8.052
8.044
8.032
8.036
8.064
8.044
8.036
8.032
8.048
8.068
8.044
8.044
8.032
8.064
8.056
8.024
8.032
8.052
8.036
8.008
8.048
8.056
8.028
8.028
8.04
8.048
8.044
8.024
8.016
8.044
8.02
8.024
8.02
8.028
8.044
8.02
8
8.016
8.024
7.984
7.968
8.024
8.04
7.984
7.984
7.964
8.024
8.02
7.964
7.98
7.988
7.992
7.988
7.968
7.964
7.984
7.976
7.96
7.984
7.976
7.948
7.936
7.956
7.988
7.936
7.956
7.948
7.968
7.972
7.936
7.96
7.968
7.956
7.94
7.948
7.972
7.944
7.94
7.956
7.988
7.972
7.948
7.94
7.96
7.98
7.968
7.952
7.964
7.98
7.968
7.948
7.976
7.988
7.952
7.956
7.964
7.976
7.96
7.936
7.956
7.98
7.968
7.94
7.92
7.956
7.992
7.972
7.944
7.964
7.976
7.96
7.96
7.964
7.992
7.94
7.944
7.988
7.984
7.956
7.952
7.98
7.992
7.976
7.984
8.02
8.056
8.088
8.04
8.016
8.004
8.068
8.12
8.116
8.108
8.096
8.044
8.056
8.036
8
7.976
7.972
7.988
7.972
7.936
7.908
7.908
7.928
7.904
7.892
7.876
7.944
7.92
7.916
7.916
7.92
7.912
7.844
7.76
7.788
7.912
8.112
8.504
9.02
9.664
10.132
10.04
9.432
8.916
8.46
8.004
7.728
7.772
7.888
7.96
8.008
8.048
8.02
8
8.004
8
8.02
8.004
7.988
8.004
8.032
7.992
7.996
8.008
8.056
8.02
8
8.012
8.04
8.028
8.024
8.032
8.048
8.032
8.016
8.052
8.088
8.064
8.064
8.064
8.092
8.108
8.092
8.108
8.132
8.156
8.152
8.136
8.168
8.212
8.172
8.18
8.216
8.252
8.24
8.26
8.284
8.328
8.356
8.356
8.38
8.436
8.484
8.488
8.536
8.58
8.612
8.628
8.672
8.728
8.784
8.784
8.804
8.864
8.908
8.892
8.896
8.932
8.936
8.916
8.864
8.816
8.8
8.736
8.668
8.624
8.524
8.464
8.364
8.316
8.284
8.232
8.164
8.1
8.116
8.08
8.032
8.012
8.012
7.996
7.98
7.964
7.988
7.988
7.968
7.944
7.968
7.984
7.956
7.956
7.956
7.976
7.968
7.952
7.968
7.972
8.004
7.96
7.956
7.952
7.988
7.96
7.96
7.964
7.96
7.956
7.956
7.96
7.96
7.952
7.92
7.952
7.972
7.964
7.924
7.944
7.98
7.972
7.932
7.924
7.94
7.956
7.952
7.936
7.936
7.932
7.92
7.916
7.932
7.944
7.912
7.916
7.92
7.932
7.904
7.876
7.888
7.92
7.916
7.896
7.88
7.908
7.904
7.88
7.896
7.928
7.892
7.88
7.88
7.916
7.904
7.868
7.872
7.884
7.912
7.88
7.868
7.876
7.912
7.92
7.876
7.9
7.888
7.892
7.876
7.9
7.88
7.892
7.856
7.896
7.892
7.888
7.872
7.864
7.884
7.904
7.856
7.86
7.888
7.92
7.872
7.864
7.872
7.896
7.896
7.884
7.872
7.9
7.876
7.864
7.892
7.904
7.904
7.872
7.884
7.888
7.904
7.892
7.872
7.884
7.9
7.896
7.88
7.888
7.9
7.888
7.86
7.892
7.9
7.892
7.888
7.892
7.908
7.876
7.852
7.872
7.9
7.912
7.936
7.936
7.972
8.02
7.976
7.964
7.952
8.028
8.028
8.036
8.044
8
7.988
7.948
7.932
7.94
7.932
7.884
7.9
7.892
7.88
7.844
7.844
7.828
7.84
7.832
7.828
7.852
7.844
7.832
7.82
7.852
7.848
7.74
7.664
7.748
7.916
8.216
8.644
9.204
9.844
10.112
9.736
9.132
8.676
8.22
7.776
7.668
7.804
7.876
7.92
7.94
8.004
8
7.968
7.916
7.928
7.972
7.944
7.92
7.956
7.96
7.94
7.928
7.948
7.956
7.96
7.936
7.96
7.992
7.996
7.968
7.98
8.012
8.016
7.996
8
8.004
8.036
8.036
8.028
8.036
8.04
8.032
8.044
8.072
8.072
8.072
8.06
8.1
8.156
8.128
8.124
8.156
8.196
8.224
8.208
8.224
8.3
8.308
8.324
8.348
8.392
8.424
8.448
8.476
8.544
8.576
8.6
8.632
8.688
8.744
8.764
8.772
8.804
8.848
8.864
8.864
8.872
8.892
8.856
8.848
8.784
8.764
8.692
8.6
8.552
8.504
8.408
8.332
8.276
8.228
8.192
8.12
8.052
8.056
8.044
8
7.976
7.964
7.968
7.948
7.936
7.948
7.948
7.92
7.892
7.924
7.94
7.944
7.892
7.908
7.932
7.948
7.92
7.904
7.924
7.944
7.924
7.92
7.936
7.932
7.932
7.924
7.928
7.944
7.936
7.904
7.912
7.956
7.952
7.912
7.92
7.924
7.932
7.912
7.896
7.908
7.912
7.912
7.924
7.884
7.912
7.888
7.884
7.924
7.896
7.88
7.864
7.892
7.924
7.904
7.888
7.864
7.896
7.884
7.872
7.864
7.896
7.896
7.868
7.876
7.892
7.876
7.856
7.872
7.884
7.88
7.86
7.86
7.88
7.892
7.872
7.836
7.84
7.876
7.876
7.864
7.856
7.872
7.88
7.86
7.864
7.892
7.892
7.864
7.864
7.876
7.908
7.864
7.872
7.872
7.904
7.868
7.86
7.848
7.884
7.864
7.868
7.884
7.912
7.864
7.868
7.876
7.9
7.872
7.832
7.856
7.896
7.9
7.86
7.848
7.884
7.908
7.884
7.86
7.892
7.924
7.88
7.888
7.888
7.904
7.888
7.868
7.908
7.892
7.892
7.848
7.876
7.924
7.9
7.9
7.92
7.952
7.984
8.008
7.96
7.964
7.984
8.02
8.044
8.076
8.068
8.012
7.988
8
7.98
7.936
7.916
7.924
7.932
7.932
7.904
7.864
7.864
7.844
7.848
7.848
7.868
7.88
7.84
7.848
7.876
7.908
7.836
7.768
7.736
7.788
7.888
8.18
8.652
9.232
9.828
10.104
9.796
9.192
8.724
8.296
7.86
7.716
7.792
7.864
7.956
8.008
8.02
7.984
8
8.016
8.028
7.968
7.992
8.004
8.02
8.02
7.984
8.008
8.008
8
7.996
8.012
8.012
8.032
8
8.02
8.052
8.052
8.044
8.044
8.08
8.084
8.052
8.084
8.084
8.116
8.112
8.12
8.144
8.132
8.132
8.136
8.18
8.188
8.184
8.188
8.24
8.272
8.264
8.272
8.284
8.332
8.38
8.372
8.404
8.412
8.476
8.504
8.536
8.592
8.624
8.632
8.676
8.74
8.788
8.8
8.844
8.88
8.928
8.96
8.952
8.98
9.02
8.992
8.98
8.936
8.904
8.864
8.788
8.712
8.66
8.588
8.476
8.432
8.384
8.336
8.268
8.204
8.176
8.176
8.112
8.052
8.08
8.076
8.044
8.024
8.028
8.028
8.044
8.028
8.056
8.056
8.028
7.996
8
8.052
8.04
8.016
7.996
8.04
8.068
8.032
8.008
8.028
8.064
8.044
8.032
8.02
8.044
8.048
8.016
8.04
8.036
8.016
8.008
8.02
8.028
8.028
7.988
8.016
8.032
8.044
8
8.004
8.012
8.012
8.004
7.984
8.008
8.02
8.012
8
8.028
8.024
7.996
7.972
7.988
8
8.016
7.972
8
7.992
8.008
7.992
7.996
8.004
8.008
7.984
7.988
8.008
7.996
7.98
7.972
7.988
8.012
7.984
7.968
7.952
8.012
7.984
7.972
7.964
7.98
7.98
7.964
7.98
8
7.984
7.956
7.988
7.996
8
7.968
7.976
8
8.012
7.968
7.964
7.972
8
7.996
7.96
7.976
8.016
7.996
7.984
8.004
8.032
8.052
8.052
8.076
8.088
8.056
8.016
8.048
8.14
8.172
8.092
8.088
8.08
8.092
8.032
7.972
8.016
8.028
7.988
7.976
7.996
7.948
7.952
7.908
7.944
7.952
7.94
7.916
7.912
7.948
7.968
7.924
7.936
7.9
7.8
7.78
7.904
8.116
8.556
9.044
9.664
10.176
10.112
9.488
8.948
8.544
8.08
7.784
7.76
7.884
7.988
8.048
8.036
8.068
8.072
8.052
8.048
8.036
8.044
8.04
8.04
8.052
8.068
8.084
8.044
8.052
8.076
8.06
8.056
8.068
8.064
8.092
8.084
8.088
8.08
8.108
8.104
8.092
8.108
8.112
8.136
8.12
8.124
8.168
8.184
8.18
8.164
8.216
8.248
8.236
8.216
8.252
8.292
8.3
8.288
8.328
8.356
8.364
8.384
8.428
8.456
8.484
8.476
8.536
8.58
8.62
8.62
8.648
8.736
8.756
8.792
8.812
8.864
8.912
8.92
8.944
8.972
8.992
8.98
8.972
8.972
8.956
8.892
8.824
8.768
8.724
8.648
8.552
8.492
8.444
8.372
8.3
8.272
8.252
8.188
8.156
8.132
8.104
8.104
8.076
8.048
8.064
8.072
8.04
8.028
8.04
8.068
8.06
8.052
8.028
8.032
8.044
8.032
8.032
8.056
8.056
8.028
8.036
8.056
8.06
8.02
8.04
8.06
8.072
8.02
8.02
8.056
8.06
8.04
8.036
8.016
8.052
8.044
8.024
8.024
8.028
8.008
8.012
8.012
8.028
8.004
7.984
8.008
8.036
8.028
7.996
7.988
8.032
8.004
8.004
7.992
8.016
8.016
8.008
7.988
8.004
8.02
7.984
7.976
7.98
8.016
8.004
7.956
7.972
7.968
8
7.972
7.984
7.96
7.976
7.96
7.972
7.956
7.964
7.96
7.972
7.984
7.984
7.972
7.956
7.984
7.988
7.984
7.952
7.968
7.984
7.972
7.964
7.964
7.98
7.98
7.96
7.964
7.992
7.996
7.964
7.964
7.972
7.976
7.964
7.968
7.964
7.98
7.948
7.936
7.96
7.976
7.968
7.956
7.968
7.952
7.972
7.948
7.972
7.972
7.984
7.944
7.964
7.96
8.02
8.028
8.04
8.072
8.108
8.052
8.036
8.06
8.112
8.14
8.104
8.096
8.064
8.04
8.02
8.008
8
8.004
7.972
7.976
7.988
7.964
7.908
7.892
7.94
7.936
7.9
7.904
7.94
7.92
7.924
7.916
7.924
7.9
7.804
7.788
7.9
8.096
8.44
8.928
9.548
10.112
10.14
9.548
9
8.58
8.128
7.764
7.772
7.9
7.992
8.048
8.048
8.052
8.048
8.028
8.016
8.044
8.032
8.016
8.016
8.024
8.036
8.02
8.008
8.032
8.036
8.056
8.032
8.028
8.1
8.044
8.032
8.056
8.072
8.092
8.084
8.08
8.088
8.112
8.1
8.096
8.132
8.14
8.156
8.136
8.144
8.176
8.172
8.176
8.2
8.2
8.232
8.244
8.268
8.292
8.296
8.316
8.344
8.388
8.424
8.416
8.428
8.484
8.576
8.588
8.592
8.652
8.696
8.736
8.74
8.772
8.844
8.86
8.892
8.924
8.944
8.952
8.94
8.968
8.98
8.948
8.888
8.832
8.812
8.732
8.664
8.58
8.504
8.464
8.396
8.32
8.268
8.244
8.164
8.144
8.124
8.132
8.084
8.036
8.04
8.044
8.048
8.004
8.004
8.028
8.044
8.008
8.012
8.028
8.024
8.024
8.02
8.008
8.036
8.012
8.028
8.024
8.02
8.02
8.016
8.028
8.064
8.052
8.024
8.024
8.036
8.028
8.032
8.02
8.036
8.016
7.98
8.016
8.02
8.012
7.984
8
8
8
7.988
7.988
8.012
8.02
7.996
7.964
7.988
7.992
8.008
7.98
7.992
8
7.98
7.972
7.98
8
7.988
7.956
7.964
7.988
8.008
7.944
7.956
7.944
7.988
7.98
7.948
7.952
7.964
7.952
7.976
7.964
7.98
7.96
7.94
7.964
7.988
7.956
7.964
7.964
7.972
7.976
7.948
7.944
7.972
8.008
7.984
7.944
7.972
7.98
7.976
7.968
7.976
7.992
7.968
7.952
7.976
7.996
7.956
7.944
7.984
7.992
7.992
7.964
7.968
7.992
7.988
7.984
7.952
7.976
7.972
7.956
7.972
7.984
7.984
7.98
7.968
7.984
8.008
7.984
7.944
7.992
7.968
7.968
7.96
7.976
7.984
7.98
7.972
7.984
7.968
8
7.976
7.968
7.992
7.988
7.956
7.976
8.028
8.076
8.072
8.072
8.084
8.068
8.06
8.08
8.128
8.164
8.144
8.064
8.08
8.068
8.016
7.996
8.008
8.028
8
8
7.968
7.984
7.944
7.928
7.932
7.936
7.948
7.932
7.928
7.944
7.94
7.944
7.944
7.872
7.812
7.804
7.932
8.216
8.704
9.2
9.804
10.204
9.98
9.38
8.844
8.376
7.972
7.776
7.856
7.944
8.016
8.068
8.064
8.06
8.068
8.052
8.036
8.008
8.032
8.04
8.02
8.004
8.036
8.036
8.068
8.036
8.056
8.048
8.056
8.06
8.068
8.088
8.08
8.068
8.064
8.088
8.1
8.104
8.088
8.12
8.144
8.14
8.112
8.136
8.16
8.172
8.14
8.164
8.184
8.192
8.188
8.208
8.236
8.24
8.236
8.272
8.312
8.348
8.348
8.376
8.392
8.436
8.484
8.46
8.532
8.584
8.592
8.64
8.66
8.716
8.752
8.768
8.816
8.868
8.9
8.9
8.916
8.964
8.976
8.952
8.928
8.912
8.876
8.836
8.768
8.704
8.64
8.58
8.504
8.44
8.36
8.3
8.248
8.22
8.16
8.104
8.084
8.068
8.072
8.04
8.024
8.008
8.004
8.024
7.992
7.968
8.012
8
7.976
7.988
8.004
7.984
7.976
7.976
7.992
8.016
8.012
7.968
7.98
8.012
7.992
7.996
7.972
7.992
7.996
7.98
7.992
8.008
7.988
7.972
7.988
7.996
7.98
7.976
7.956
7.992
8
8
7.96
7.968
7.992
7.964
7.944
7.976
7.968
7.956
7.944
7.964
7.988
7.968
7.944
7.956
7.98
7.956
7.956
7.94
7.956
7.968
7.932
7.932
7.956
7.964
7.948
7.916
7.952
7.944
7.952
7.908
7.924
7.944
7.956
7.892
7.944
7.936
7.944
7.908
7.916
7.932
7.94
7.924
7.9
7.94
7.948
7.924
7.9
7.94
7.94
7.94
7.924
7.948
7.952
7.936
7.896
7.944
7.944
7.924
7.924
7.912
7.936
7.928
7.928
7.924
7.936
7.936
7.94
7.936
7.928
7.928
7.904
7.92
7.952
7.94
7.924
7.908
7.94
7.944
7.94
7.924
7.932
7.916
7.936
7.928
7.928
7.932
7.948
7.916
7.948
7.944
7.924
7.94
7.928
7.956
7.952
7.972
7.992
8.028
8.064
8.052
7.996
8
8.044
8.092
8.088
8.092
8.06
8.028
8.02
7.996
7.972
7.98
7.964
7.956
7.968
7.94
7.912
7.892
7.9
7.88
7.908
7.86
7.872
7.884
7.88
7.884
7.892
7.904
7.852
7.764
7.744
7.872
8.068
8.46
8.972
9.576
10.104
10.052
9.484
8.956
8.52
8.044
7.72
7.78
7.876
7.94
7.996
8.032
8.02
8.008
7.984
8.004
8.004
7.964
7.972
7.988
7.996
7.976
7.984
7.992
8.012
7.996
7.992
8
8.028
8.012
8.016
8.02
8.048
8.052
8.024
8.044
8.064
8.08
8.064
8.076
8.092
8.104
8.088
8.108
8.116
8.116
8.136
8.148
8.144
8.148
8.18
8.172
8.192
8.228
8.232
8.26
8.268
8.324
8.364
8.364
8.392
8.416
8.488
8.508
8.528
8.556
8.608
8.656
8.676
8.704
8.764
8.776
8.82
8.876
8.904
8.904
8.916
8.928
8.964
8.936
8.892
8.86
8.84
8.788
8.724
8.632
8.556
8.516
8.44
8.388
8.32
8.244
8.216
8.152
8.136
8.12
8.092
8.048
8.044
8.04
8.036
8.012
8
8
7.992
7.988
8.008
8.02
8.016
8
7.996
8.024
8.032
7.976
7.976
7.992
8.02
8.008
7.988
7.984
8.008
8.012
7.972
8.012
7.992
7.988
8.008
7.976
7.988
7.984
7.972
7.98
8
7.996
7.984
7.956
7.988
7.972
7.952
7.96
7.96
7.968
7.964
7.952
7.952
7.968
7.964
7.956
7.948
7.944
7.92
7.94
7.956
7.964
7.944
7.936
7.944
7.944
7.936
7.924
7.916
7.936
7.952
7.944
7.932
7.936
7.956
7.924
7.924
7.932
7.94
7.94
7.924
7.928
7.952
7.928
7.932
7.904
7.944
7.936
7.916
7.908
7.924
7.936
7.92
7.928
7.936
7.924
7.92
7.944
7.928
7.936
7.924
7.896
7.924
7.96
7.932
7.924
7.912
7.948
7.952
7.944
7.916
7.952
7.944
7.956
7.928
7.94
7.932
7.912
7.948
7.94
7.952
7.912
7.912
7.94
7.964
7.936
7.924
7.92
7.948
7.924
7.944
7.936
7.948
7.92
7.944
7.94
7.94
7.928
7.924
7.916
7.956
7.956
7.968
7.98
8.008
8.064
8.052
8.04
8.012
8.032
8.068
8.108
8.124
8.092
8.052
8.044
8.028
8.008
7.992
7.956
7.964
7.96
7.968
7.916
7.904
7.928
7.936
7.896
7.896
7.912
7.924
7.912
7.912
7.92
7.936
7.888
7.812
7.788
7.836
7.968
8.304
8.816
9.404
9.996
10.156
9.72
9.12
8.696
8.24
7.816
7.772
7.856
7.932
8.016
8.032
8.06
8.036
8.04
8.024
8.044
8.016
8.032
8.032
8.06
8.052
8.04
8.036
8.024
8.044
8.048
8.06
8.056
8.052
8.052
8.072
8.084
8.08
8.08
8.112
8.12
8.14
8.104
8.112
8.132
8.148
8.172
8.172
8.172
8.212
8.2
8.208
8.224
8.228
8.256
8.248
8.276
8.304
8.32
8.308
8.34
8.384
8.432
8.444
8.46
8.516
8.524
8.548
8.604
8.648
8.688
8.724
8.772
8.82
8.848
8.872
8.904
8.94
8.996
9.016
9.016
9.036
9.08
9.072
9.008
8.996
8.964
8.904
8.832
8.78
8.7
8.616
8.52
8.472
8.428
8.348
8.288
8.232
8.204
8.18
8.144
8.12
8.104
8.104
8.1
8.072
8.08
8.08
8.072
8.072
8.048
8.08
8.08
8.032
8.056
8.06
8.068
8.06
8.072
8.092
8.092
8.056
8.072
8.06
8.088
8.08
8.072
8.064
8.06
8.08
8.072
8.068
8.084
8.064
8.08
8.072
8.064
8.076
8.072
8.064
8.068
8.064
8.052
8.04
8.064
8.072
8.06
8.056
8.04
8.072
8.048
8.044
8.056
8.044
8.044
8.024
8.032
8.064
8.036
8.04
8.036
8.048
8.044
8.032
8.036
8.032
8.056
8.044
8.024
8.032
8.052
8.028
8.024
8.056
8.028
8.036
7.996
8.036
8.048
8.048
8
8
8.032
8.036
8.044
8.024
8.04
8.048
8.024
8.04
8.02
8.024
8.008
8.016
8.028
8.036
8.008
8.024
8.024
8.056
8.036
8.024
8.024
8.048
8.032
8.04
8.028
8.028
8.044
8.024
8.044
8.044
8.076
8.088
8.108
8.128
8.128
8.088
8.096
8.112
8.176
8.216
8.176
8.148
8.14
8.12
8.1
8.08
8.084
8.068
8.06
8.036
8.036
8.024
7.98
7.988
8.004
8.02
7.98
7.996
8.008
8.008
8.008
8.024
8.016
7.968
7.864
7.864
7.964
8.192
8.548
9.072
9.68
10.204
10.208
9.644
9.084
8.68
8.18
7.852
7.812
7.96
8.068
8.104
8.112
8.136
8.14
8.12
8.132
8.12
8.128
8.108
8.112
8.132
8.132
8.136
8.12
8.136
8.136
8.152
8.128
8.116
8.14
8.156
8.16
8.172
8.172
8.168
8.152
8.172
8.2
8.212
8.172
8.212
8.228
8.252
8.244
8.22
8.264
8.288
8.268
8.264
8.308
8.336
8.324
8.348
8.352
8.4
8.412
8.412
8.428
8.484
8.504
8.532
8.576
8.588
8.644
8.664
8.676
8.752
8.792
8.82
8.828
8.888
8.92
8.952
8.988
8.992
9.012
9.052
9.052
9.04
9.036
9.008
8.952
8.92
8.852
8.812
8.728
8.644
8.548
8.516
8.44
8.4
8.336
8.284
8.24
8.22
8.204
8.148
8.128
8.124
8.144
8.148
8.128
8.108
8.112
8.112
8.132
8.1
8.096
8.112
8.092
8.116
8.096
8.092
8.124
8.088
8.108
8.12
8.112
8.1
8.116
8.12
8.112
8.12
8.076
8.124
8.124
8.108
8.108
8.112
8.108
8.124
8.084
8.096
8.096
8.08
8.072
8.084
8.108
8.096
8.084
8.076
8.096
8.088
8.072
8.052
8.056
8.084
8.08
8.06
8.06
8.072
8.072
8.056
8.06
8.056
8.044
8.028
8.036
8.048
8.052
8.016
8.02
8.052
8.052
8.016
8.04
8.044
8.052
8.048
8.028
8.056
8.04
8.036
8.048
8.064
8.072
8.036
8.032
8.044
8.056
8.048
8.008
8.032
8.044
8.072
8.036
8.052
8.052
8.044
8.044
8.056
8.036
8.06
8.016
8.04
8.064
8.064
8.044
8.032
8.04
8.04
8.036
8.04
8.04
8.048
8.048
8.028
8.012
8.036
8.044
8.024
8.032
8.02
8.04
8.036
8.032
8.04
8.056
8.064
8.076
8.1
8.14
8.156
8.116
8.104
8.132
8.184
8.18
8.196
8.156
8.116
8.116
8.096
8.092
8.072
8.052
8.052
8.056
8.048
8.008
7.988
7.992
7.996
8
8
8.008
8
8.004
7.996
8.02
8.016
7.964
7.896
7.864
7.96
8.104
8.428
8.944
9.524
10.116
10.256
9.756
9.172
8.716
8.264
7.88
7.84
7.96
8.044
8.092
8.144
8.136
8.1
8.08
8.1
8.108
8.088
8.068
8.084
8.076
8.096
8.096
8.08
8.076
8.112
8.084
8.1
8.124
8.112
8.108
8.112
8.128
8.128
8.12
8.132
8.14
8.18
8.152
8.152
8.16
8.204
8.204
8.172
8.216
8.22
8.224
8.24
8.256
8.268
8.26
8.272
8.316
8.336
8.356
8.348
8.352
8.416
8.452
8.464
8.476
8.544
8.564
8.608
8.608
8.664
8.708
8.748
8.776
8.804
8.844
8.88
8.9
8.932
8.96
8.996
9.016
9.02
9.016
9.028
8.968
8.944
8.912
8.852
8.792
8.692
8.644
8.592
8.5
8.452
8.38
8.32
8.292
8.204
8.188
8.192
8.152
8.132
8.116
8.096
8.112
8.06
8.076
8.064
8.084
8.072
8.052
8.072
8.064
8.068
8.064
8.084
8.08
8.056
8.064
8.096
8.076
8.072
8.06
8.076
8.096
8.1
8.052
8.072
8.08
8.072
8.076
8.06
8.072
8.08
8.068
8.048
8.072
8.092
8.056
8.04
8.056
8.056
8.06
8.024
8.064
8.06
8.068
8.048
8.036
8.056
8.052
8.052
8.052
8.044
8.048
8.048
8.028
8.048
8.036
8.028
8.02
8.032
8.056
8.016
8.02
8.032
8.024
8.028
8.032
8.024
8.02
8.028
8.008
8.048
8.024
8.04
8.008
8.004
8.028
8.028
8.016
8.012
8.012
8.052
8.028
8.012
8
8.044
8.02
8
8.024
8.028
8.02
8.028
8.024
8.02
8.016
8
8.02
8.02
8.028
8.012
8.02
8.036
8.02
8.016
8.012
8.024
8.04
8.012
8.016
8.028
8.02
8.028
8
8.024
8.056
8.012
8.012
8.024
8.048
8.048
8.012
8.012
8.056
8.028
8.028
8.032
8.04
8.032
8.036
8.04
8.036
8.056
8.016
8.024
8.04
8.056
8.048
8.04
8.052
8.056
8.056
8.032
8.052
8.08
8.104
8.104
8.156
8.156
8.124
8.112
8.156
8.228
8.212
8.188
8.136
8.156
8.152
8.096
8.04
8.088
8.104
8.088
8.044
8.048
8.036
7.996
8
8.004
8.004
7.984
7.984
8.016
8.02
8.008
7.992
7.984
7.98
7.884
7.84
7.948
8.188
8.608
9.124
9.704
10.236
10.184
9.572
9.024
8.6
8.136
7.832
7.864
8.008
8.092
8.12
8.12
8.116
8.116
8.12
8.1
8.092
8.112
8.096
8.08
8.1
8.092
8.112
8.108
8.116
8.128
8.132
8.1
8.104
8.132
8.152
8.128
8.124
8.152
8.168
8.168
8.172
8.168
8.192
8.196
8.204
8.188
8.224
8.216
8.068
8.224
8.252
8.26
8.264
8.268
8.308
8.336
8.328
8.32
8.368
8.388
8.416
8.424
8.452
8.488
8.524
8.532
8.584
8.616
8.652
8.676
8.704
8.772
8.792
8.824
8.864
8.892
8.96
8.968
8.996
9.02
9.044
9.076
9.056
9.056
9.036
8.972
8.94
8.92
8.84
8.764
8.664
8.632
8.564
8.488
8.392
8.364
8.336
8.3
8.248
8.2
8.18
8.176
8.16
8.112
8.14
8.128
8.104
8.092
8.148
8.132
8.108
8.108
8.112
8.132
8.128
8.076
8.112
8.132
8.136
8.108
8.128
8.128
8.152
8.132
8.112
8.132
8.132
8.14
8.128
8.136
8.144
8.112
8.124
8.12
8.148
8.124
8.088
8.12
8.128
8.124
8.088
8.116
8.124
8.1
8.092
8.108
8.12
8.108
8.088
8.1
8.108
8.108
8.092
8.088
8.088
8.128
8.108
8.08
8.1
8.1
8.108
8.112
8.1
8.104
8.1
8.104
8.1
8.096
8.068
8.056
8.084
8.104
8.104
8.084
8.072
8.08
8.104
8.084
8.072
8.088
8.084
8.08
8.072
8.072
8.096
8.092
8.088
8.1
8.096
8.096
8.056
8.096
8.116
8.084
8.072
8.072
8.104
8.12
8.08
8.084
8.1
8.116
8.08
8.104
8.092
8.1
8.068
8.08
8.116
8.124
8.1
8.092
8.108
8.116
8.124
8.092
8.096
8.104
8.112
8.096
8.108
8.108
8.12
8.104
8.112
8.12
8.124
8.092
8.084
8.124
8.12
8.116
8.112
8.12
8.136
8.128
8.096
8.108
8.104
8.116
8.116
8.152
8.192
8.192
8.22
8.196
8.204
8.172
8.18
8.236
8.308
8.268
8.216
8.204
8.204
8.188
8.148
8.128
8.144
8.176
8.156
8.124
8.112
8.104
8.096
8.044
8.092
8.092
8.084
8.084
8.088
8.104
8.116
8.088
8.032
7.968
7.924
8.028
8.204
8.56
9.088
9.684
10.248
10.312
9.8
9.256
8.784
8.336
8.012
7.956
8.024
8.104
8.172
8.22
8.216
8.2
8.2
8.196
8.212
8.18
8.204
8.204
8.204
8.192
8.232
8.22
8.22
8.192
8.232
8.244
8.236
8.224
8.236
8.244
8.264
8.24
8.264
8.28
8.288
8.276
8.284
8.316
8.296
8.304
8.292
8.336
8.352
8.324
8.352
8.38
8.396
8.388
8.384
8.428
8.456
8.46
8.464
8.488
8.508
8.552
8.556
8.588
8.62
8.648
8.648
8.704
8.776
8.796
8.82
8.84
8.908
8.964
8.984
8.996
9.036
9.068
9.112
9.132
9.156
9.172
9.152
9.152
9.14
9.12
9.068
8.976
8.932
8.876
8.804
8.684
8.608
8.616
8.556
8.452
8.408
8.38
8.352
8.292
8.264
8.248
8.248
8.236
8.224
8.228
8.216
8.172
8.184
8.2
8.204
8.188
8.192
8.192
8.208
8.204
8.2
8.172
8.204
8.208
8.176
8.192
8.208
8.204
8.208
8.172
8.2
8.208
8.22
8.172
8.196
8.22
8.204
8.18
8.168
8.188
8.2
8.184
8.176
8.184
8.188
8.184
8.156
8.176
8.164
8.16
8.152
8.172
8.172
8.14
8.144
8.16
8.184
8.144
8.124
8.148
8.168
8.152
8.156
8.148
8.148
8.152
8.152
8.136
8.144
8.164
8.104
8.132
8.148
8.148
8.116
8.124
8.136
8.14
8.128
8.096
8.112
8.144
8.128
8.104
8.116
8.108
8.124
8.108
8.108
8.132
8.148
8.12
8.108
8.164
8.116
8.128
8.1
8.108
8.156
8.104
8.088
8.108
8.128
8.104
8.092
8.136
8.132
8.088
8.1
8.128
8.104
8.108
8.096
8.1
8.124
8.12
8.096
8.104
8.14
8.18
8.164
8.216
8.212
8.188
8.192
8.188
8.248
8.28
8.24
8.208
8.212
8.184
8.136
8.112
8.116
8.144
8.124
8.108
8.096
8.084
8.072
8.056
8.032
8.056
8.072
8.036
8.048
8.064
8.072
8.056
8.036
8.032
7.956
7.912
8.004
8.228
8.628
9.144
9.7
10.264
10.28
9.68
9.1
8.644
8.212
7.888
7.908
8.028
8.132
8.176
8.164
8.168
8.18
8.168
8.124
8.124
8.144
8.156
8.152
8.136
8.152
8.152
8.156
8.14
8.148
8.18
8.148
8.152
8.18
8.192
8.176
8.196
8.168
8.204
8.232
8.208
8.192
8.22
8.248
8.228
8.256
8.244
8.276
8.268
8.26
8.3
8.292
8.304
8.296
8.34
8.356
8.364
8.384
8.396
8.436
8.456
8.444
8.484
8.536
8.584
8.572
8.624
8.652
8.712
8.728
8.748
8.82
8.86
8.88
8.904
8.952
9.004
9.008
9.024
9.064
9.076
9.092
9.056
9.024
9.024
8.996
8.932
8.872
8.812
8.716
8.636
8.568
8.556
8.468
8.388
8.324
8.304
8.28
8.224
8.192
8.18
8.176
8.176
8.124
8.128
8.124
8.116
8.124
8.108
8.116
8.108
8.088
8.104
8.132
8.112
8.112
8.084
8.128
8.14
8.1
8.124
8.116
8.136
8.124
8.112
8.116
8.14
8.124
8.108
8.108
8.144
8.14
8.128
8.128
8.148
8.144
8.112
8.112
8.112
8.132
8.108
8.076
8.112
8.116
8.124
8.112
8.112
8.112
8.12
8.088
8.104
8.108
8.092
8.056
8.096
8.124
8.112
8.076
8.068
8.08
8.1
8.084
8.084
8.076
8.076
8.08
8.092
8.08
8.096
8.056
8.076
8.084
8.092
8.056
8.056
8.068
8.08
8.052
8.056
8.052
8.08
8.076
8.072
8.072
8.088
8.088
8.064
8.048
8.068
8.072
8.048
8.08
8.08
8.1
8.076
8.064
8.072
8.116
8.084
8.048
8.064
8.076
8.092
8.072
8.088
8.08
8.084
8.06
8.092
8.088
8.088
8.064
8.08
8.1
8.096
8.06
8.072
8.072
8.076
8.08
8.068
8.064
8.08
8.072
8.072
8.088
8.112
8.072
8.068
8.092
8.108
8.104
8.076
8.072
8.084
8.084
8.056
8.072
8.088
8.116
8.056
8.068
8.112
8.12
8.148
8.16
8.2
8.208
8.128
8.148
8.196
8.24
8.244
8.22
8.204
8.22
8.192
8.12
8.116
8.132
8.136
8.092
8.092
8.092
8.084
8.028
8.008
8.032
8.064
8.036
8.032
8.052
8.044
8.04
8.044
8.044
8.016
7.932
7.92
8.028
8.248
8.66
9.172
9.788
10.304
10.232
9.632
9.104
8.664
8.196
7.868
7.952
8.068
8.148
8.192
8.188
8.18
8.188
8.176
8.14
8.168
8.164
8.16
8.136
8.144
8.176
8.168
8.14
8.156
8.2
8.184
8.156
8.164
8.2
8.2
8.156
8.184
8.188
8.224
8.22
8.204
8.224
8.24
8.24
8.232
8.272
8.252
8.276
8.268
8.304
8.312
8.312
8.312
8.32
8.372
8.36
8.364
8.396
8.432
8.456
8.464
8.464
8.536
8.552
8.568
8.572
8.66
8.688
8.72
8.716
8.788
8.812
8.832
8.852
8.932
8.96
8.988
8.988
9.028
9.072
9.096
9.088
9.088
9.112
9.068
9.02
8.972
8.952
8.872
8.768
8.708
8.668
8.604
8.508
8.436
8.412
8.388
8.316
8.288
8.244
8.236
8.212
8.204
8.188
8.184
8.144
8.152
8.168
8.172
8.152
8.104
8.136
8.148
8.164
8.156
8.12
8.152
8.148
8.144
8.132
8.156
8.18
8.164
8.136
8.164
8.16
8.164
8.136
8.14
8.172
8.172
8.148
8.144
8.192
8.168
8.148
8.116
8.132
8.132
8.132
8.136
8.144
8.148
8.116
8.116
8.136
8.144
8.104
8.1
8.132
8.144
8.112
8.088
8.104
8.12
8.148
8.108
8.084
8.128
8.112
8.056
8.084
8.108
8.104
8.088
7.92
8.112
8.092
8.096
8.068
7.892
8.112
8.096
8.068
8.072
8.12
8.084
8.092
8.092
8.076
8.096
8.072
8.08
8.096
8.1
8.088
8.092
8.12
8.096
8.092
8.088
8.096
8.104
8.1
8.072
8.1
8.104
8.088
8.092
8.116
8.116
8.096
8.092
8.092
8.112
8.112
8.088
8.084
8.124
8.12
8.096
8.072
8.092
8.112
8.108
8.108
8.112
8.1
8.12
8.116
8.12
8.124
8.112
8.104
8.116
8.128
8.088
8.096
8.1
8.144
8.132
8.084
8.1
8.116
8.116
8.124
8.104
8.124
8.116
8.116
8.1
8.124
8.112
8.112
8.116
8.12
8.132
8.112
8.096
8.128
8.16
8.18
8.192
8.192
8.216
8.192
8.172
8.192
8.268
8.288
8.268
8.212
8.204
8.192
8.168
8.132
8.156
8.18
8.148
8.136
8.128
8.128
8.064
8.044
8.068
8.068
8.068
8.076
8.064
8.104
8.108
8.08
8.072
8.056
7.988
7.92
7.992
8.184
8.564
9.028
9.58
10.2
10.36
9.86
9.272
8.808
8.36
7.968
7.92
8.032
8.128
8.184
8.188
8.236
8.24
8.184
8.148
8.172
8.2
8.2
8.184
8.18
8.216
8.24
8.204
8.16
8.188
8.208
8.188
8.2
8.224
8.228
8.224
8.232
8.236
8.26
8.248
8.248
8.256
8.28
8.28
8.264
8.276
8.296
8.312
8.316
8.324
8.352
8.356
8.36
8.384
8.376
8.408
8.412
8.416
8.464
8.484
8.5
8.5
8.532
8.596
8.616
8.644
8.672
8.712
8.744
8.78
8.812
8.848
8.908
8.928
8.976
9.032
9.08
9.1
9.132
9.176
9.2
9.192
9.156
9.16
9.18
9.128
9.072
9.016
8.972
8.932
8.816
8.748
8.684
8.608
8.532
8.496
8.436
8.38
8.344
8.3
8.28
8.268
8.236
8.196
8.228
8.212
8.2
8.184
8.184
8.196
8.188
8.188
8.196
8.228
8.196
8.172
8.192
8.22
8.224
8.188
8.204
8.216
8.24
8.208
8.204
8.196
8.216
8.228
8.196
8.212
8.188
8.196
8.184
8.196
8.224
8.212
8.18
8.188
8.192
8.188
8.176
8.18
8.2
8.216
8.18
8.152
8.18
8.2
8.168
8.16
8.168
8.168
8.16
8.16
8.176
8.184
8.168
8.14
8.16
8.14
8.156
8.136
8.152
8.152
8.168
8.136
8.14
8.168
8.136
8.124
8.132
8.148
8.156
8.14
8.112
8.168
8.148
8.116
8.136
8.148
8.144
8.136
8.112
8.124
8.148
8.132
8.14
8.136
8.148
8.14
8.128
8.124
8.144
8.132
8.108
8.108
8.132
8.16
8.116
8.108
8.148
8.152
8.16
8.12
8.116
8.132
8.136
8.132
8.152
8.152
8.144
8.14
8.148
8.16
8.132
8.108
8.132
8.164
8.14
8.144
8.172
8.204
8.264
8.244
8.212
8.204
8.212
8.24
8.268
8.296
8.284
8.232
8.232
8.228
8.184
8.164
8.16
8.172
8.156
8.136
8.116
8.1
8.112
8.088
8.084
8.052
8.108
8.1
8.06
8.076
8.116
8.124
8.092
8.02
7.98
8
8.1
8.348
8.832
9.396
10.028
10.348
10.084
9.456
8.984
8.532
8.092
7.92
7.98
8.084
8.152
8.2
8.22
8.192
8.192
8.2
8.188
8.148
8.168
8.192
8.204
8.2
8.172
8.188
8.2
8.2
8.204
8.196
8.196
8.228
8.22
8.212
8.232
8.228
8.212
8.236
8.268
8.28
8.232
8.272
8.268
8.312
8.284
8.264
8.32
8.336
8.328
8.344
8.332
8.372
8.364
8.372
8.38
8.432
8.444
8.444
8.46
8.516
8.54
8.52
8.528
8.616
8.66
8.664
8.7
8.736
8.796
8.808
8.86
8.896
8.928
8.94
8.988
9.048
9.08
9.08
9.072
9.092
9.116
9.116
9.076
9.032
8.996
8.968
8.868
8.792
8.764
8.664
8.596
8.528
8.48
8.432
8.368
8.312
8.304
8.284
8.216
8.2
8.204
8.2
8.172
8.152
8.148
8.172
8.156
8.144
8.124
8.152
8.148
8.108
8.128
8.144
8.136
8.116
8.132
8.152
8.16
8.14
8.108
8.148
8.16
8.152
8.14
8.128
8.144
8.128
8.128
8.12
8.128
8.124
8.116
8.116
8.136
8.116
8.116
8.088
8.136
8.128
8.088
8.092
8.092
8.104
8.092
8.076
8.072
8.1
8.084
8.092
8.116
8.112
8.064
8.064
8.08
8.1
8.084
8.056
8.06
8.104
8.088
8.072
8.032
8.072
8.08
8.068
8.056
8.06
8.06
8.044
8.056
8.068
8.068
8.064
8.056
8.064
8.084
8.048
8.032
8.032
8.084
8.048
8.036
8.036
8.06
8.08
8.056
8.048
8.052
8.06
8.056
8.056
8.056
8.084
8.044
8.012
8.076
8.076
8.06
8.044
8.064
8.08
8.048
8.06
8.052
8.064
8.064
8.052
8.06
8.06
8.056
8.06
8.052
8.072
8.084
8.06
8.032
8.04
8.076
8.052
8.036
8.052
8.072
8.04
8.044
8.04
8.06
8.048
8.044
8.1
8.144
8.136
8.136
8.144
8.136
8.136
8.124
8.176
8.2
8.208
8.136
8.132
8.132
8.104
8.084
8.08
8.076
8.096
8.064
8.036
8.016
8.016
7.992
7.972
7.984
8.016
8
7.984
8
8.028
8.024
8.008
7.944
7.876
7.888
7.988
8.212
8.6
9.116
9.704
10.236
10.188
9.58
8.996
8.536
8.092
7.856
7.884
7.976
8.064
8.132
8.148
8.128
8.092
8.1
8.068
8.064
8.1
8.104
8.088
8.072
8.072
8.112
8.096
8.08
8.096
8.104
8.12
8.112
8.1
8.124
8.12
8.156
8.136
8.14
8.176
8.144
8.144
8.172
8.176
8.188
8.18
8.168
8.2
8.228
8.216
8.228
8.244
8.284
8.272
8.276
8.288
8.316
8.336
8.344
8.384
8.408
8.408
8.44
8.488
8.516
8.536
8.564
8.596
8.652
8.684
8.7
8.724
8.784
8.844
8.86
8.892
8.928
8.976
8.984
9.008
9.004
9.028
9.04
9.028
8.992
8.98
8.896
8.836
8.764
8.72
8.664
8.556
8.488
8.452
8.42
8.328
8.272
8.26
8.212
8.18
8.144
8.132
8.128
8.096
8.1
8.088
8.104
8.092
8.06
8.064
8.092
8.1
8.076
8.076
8.092
8.08
8.076
8.088
8.08
8.104
8.072
8.072
8.08
8.092
8.072
8.076
8.084
8.104
8.084
8.084
8.092
8.112
8.096
8.088
8.088
8.08
8.084
8.088
8.092
8.076
8.076
8.06
8.084
8.096
8.084
8.04
8.032
8.08
8.08
8.068
8.048
8.048
8.056
8.064
8.048
8.044
8.056
8.032
8.036
8.036
8.056
8.048
8.036
8.052
8.052
8.04
8.012
8.016
8.032
8.028
8.004
8.004
8.032
8.056
8.04
8.016
8.02
8.02
8.016
8.008
8.032
8.032
8.012
8.008
8.032
8.024
8.008
8.012
8.012
8.056
8.028
7.996
8
8.012
8.012
8.012
8.016
8.004
8.04
8.02
7.984
8.036
8.044
8.02
8
8.032
8.048
8.02
8.016
8.012
8.028
8.036
8.008
8.024
8.036
8.028
8.008
8.02
8.036
8.044
8.02
8.02
8.024
8.024
8.024
8
8.02
8.056
8.036
8.012
8.036
8.036
8.044
8
8.016
8.024
8.02
8.028
8.008
8.044
8.008
8.028
8.056
8.1
8.124
8.116
8.128
8.112
8.104
8.104
8.14
8.184
8.2
8.152
8.12
8.108
8.092
8.056
8.036
8.044
8.076
8.028
7.996
8.004
8.004
7.992
7.964
7.956
7.984
7.992
7.964
7.96
7.984
8
7.996
7.956
7.908
7.852
7.94
8.076
8.42
8.916
9.452
10.084
10.232
9.824
9.216
8.708
8.264
7.912
7.856
7.936
8.028
8.116
8.128
8.124
8.096
8.104
8.108
8.076
8.08
8.116
8.108
8.072
8.06
8.112
8.144
8.132
8.084
8.104
8.128
8.132
8.1
8.104
8.144
8.12
8.136
8.152
8.164
8.188
8.128
8.168
8.18
8.2
8.184
8.196
8.188
8.236
8.248
8.244
8.244
8.288
8.304
8.276
8.28
8.324
8.356
8.352
8.364
8.4
8.444
8.444
8.48
8.516
8.572
8.576
8.616
8.664
8.712
8.74
8.76
8.804
8.876
8.88
8.92
8.944
9.008
9.032
9.024
9.064
9.092
9.072
9.06
9.052
9.044
9.004
8.932
8.868
8.804
8.748
8.652
8.592
8.532
8.472
8.408
8.348
8.296
8.272
8.2
8.212
8.196
8.204
8.164
8.112
8.096
8.124
8.128
8.092
8.104
8.128
8.116
8.092
8.08
8.104
8.108
8.108
8.096
8.128
8.128
8.092
8.092
8.136
8.14
8.124
8.12
8.108
8.136
8.132
8.108
8.12
8.136
8.128
8.124
8.128
8.144
8.136
8.112
8.108
8.108
8.096
8.088
8.06
8.1
8.096
8.084
8.064
8.084
8.112
8.1
8.064
8.084
8.1
8.06
8.088
8.076
8.092
8.084
8.048
8.08
8.1
8.072
8.072
8.072
8.08
8.088
8.048
8.024
8.04
8.076
8.076
8.032
8.048
8.088
8.068
8.064
8.06
8.072
8.068
8.032
8.052
8.064
8.064
8.048
8.064
8.068
8.048
8.04
8.008
8.052
8.08
8.056
8.048
8.068
8.084
8.06
8.056
8.084
8.076
8.068
8.032
8.068
8.072
8.084
8.052
8.04
8.068
8.06
8.064
8.072
8.08
8.064
8.08
8.064
8.076
8.068
8.052
8.068
8.088
8.076
8.044
8.032
8.092
8.116
8.096
8.076
8.084
8.116
8.104
8.12
8.144
8.172
8.176
8.112
8.136
8.152
8.22
8.212
8.224
8.196
8.184
8.168
8.12
8.092
8.108
8.072
8.072
8.088
8.08
8.048
8.036
8.044
8.036
8.044
8.04
8.024
8.044
8.024
8.036
8.052
8.072
8.016
7.904
7.864
7.992
8.136
8.496
9
9.632
10.208
10.276
9.8
9.224
8.776
8.308
7.92
7.876
7.968
8.056
8.1
8.132
8.172
8.168
8.136
8.132
8.14
8.144
8.14
8.112
8.124
8.148
8.12
8.148
8.172
8.176
8.148
8.16
8.176
8.18
8.176
8.168
8.176
8.204
8.188
8.18
8.196
8.216
8.212
8.2
8.196
8.236
8.228
8.24
8.252
8.252
8.272
8.28
8.292
8.332
8.344
8.316
8.352
8.38
8.412
8.424
8.42
8.464
8.504
8.54
8.548
8.576
8.628
8.66
8.688
8.728
8.756
8.804
8.82
8.848
8.904
8.96
8.976
8.992
9.044
9.068
9.064
9.08
9.1
9.068
9.056
8.988
8.98
8.92
8.836
8.756
8.716
8.648
8.56
8.472
8.424
8.408
8.356
8.272
8.236
8.224
8.228
8.18
8.164
8.156
8.132
8.148
8.112
8.148
8.14
8.132
8.128
8.14
8.16
8.136
8.116
8.14
8.14
8.152
8.144
8.124
8.132
8.128
8.128
8.136
8.136
8.116
8.128
8.104
8.128
8.132
8.108
8.072
8.096
8.136
8.112
8.096
8.104
8.116
8.136
8.076
8.116
8.112
8.12
8.088
8.104
8.112
8.096
8.084
8.072
8.092
8.076
8.064
8.04
8.056
8.1
8.068
8.064
8.076
8.06
8.064
8.064
8.064
8.08
8.068
8.056
8.072
8.064
8.036
8.032
8.052
8.092
8.06
8.024
8.048
8.064
8.06
8.064
8.008
8.064
8.084
8.064
8.048
8.044
8.064
8.044
8.04
8.072
8.056
8.044
8.032
8.048
8.048
8.048
8.02
8.032
8.028
8.064
8.02
8.032
8.036
8.052
8.036
8.036
8.036
8.068
8.024
8.04
8.044
8.048
8.032
8.032
8.072
8.104
8.12
8.128
8.152
8.136
8.136
8.112
8.14
8.192
8.212
8.18
8.14
8.112
8.112
8.048
8.052
8.072
8.08
8.036
8
8.028
8.016
7.98
7.956
7.964
7.98
8
7.956
7.98
7.984
7.996
7.988
7.984
7.932
7.844
7.852
7.976
8.232
8.656
9.156
9.752
10.236
10.12
9.5
8.928
8.524
8.068
7.804
7.868
7.976
8.052
8.092
8.076
8.088
8.12
8.088
8.056
8.052
8.092
8.092
8.052
8.06
8.088
8.104
8.088
8.092
8.096
8.116
8.092
8.108
8.096
8.136
8.112
8.12
8.124
8.172
8.148
8.136
8.16
8.18
8.192
8.176
8.144
8.208
8.204
8.2
8.224
8.252
8.272
8.272
8.296
8.312
8.32
8.296
8.324
8.348
8.404
8.4
8.412
8.452
8.528
8.54
8.528
8.584
8.604
8.672
8.684
8.716
8.76
8.812
8.848
8.868
8.928
8.96
8.984
8.992
9.032
9.072
9.052
9.036
9.024
9.004
8.952
8.892
8.84
8.768
8.7
8.612
8.552
8.48
8.416
8.344
8.312
8.284
8.244
8.176
8.168
8.144
8.144
8.124
8.088
8.12
8.108
8.096
8.096
8.088
8.092
8.096
8.092
8.084
8.096
8.096
8.068
8.088
8.088
8.08
8.044
8.068
8.108
8.108
8.068
8.092
8.088
8.104
8.108
8.088
8.104
8.096
8.104
8.076
8.1
8.116
8.084
8.06
8.092
8.112
8.08
8.072
8.068
8.076
8.096
8.064
8.072
8.1
8.092
8.072
8.068
8.064
8.08
8.028
8.02
8.048
8.06
8.06
8.036
8.044
8.08
8.044
8.044
8.036
8.048
8.044
8.028
8.02
8.036
8.052
8.044
8.052
8.04
8.036
8.02
8.044
8.052
8.04
8.02
8.004
8.04
8.072
8.052
8.016
8.008
8.016
8.012
8.02
8.008
8.048
8.028
8.036
8.044
8.04
8.02
8.032
8.044
8.068
8.056
8.016
8.06
8.104
8.136
8.136
8.116
8.112
8.112
8.12
8.128
8.164
8.2
8.164
8.132
8.144
8.108
8.06
8.068
8.072
8.076
8.06
8.016
8.012
8.028
8
7.988
7.972
7.988
8.016
7.992
7.992
7.992
8.032
8
7.968
7.912
7.86
7.888
8.016
8.34
8.824
9.368
10
10.26
9.916
9.3
8.808
8.364
7.952
7.8
7.872
7.992
8.064
8.12
8.1
8.104
8.088
8.112
8.08
8.064
8.072
8.108
8.088
8.06
8.096
8.12
8.124
8.1
8.104
8.104
8.12
8.096
8.132
8.152
8.148
8.116
8.116
8.168
8.184
8.164
8.148
8.188
8.204
8.18
8.18
8.204
8.216
8.208
8.212
8.228
8.264
8.252
8.264
8.26
8.292
8.332
8.312
8.352
8.384
8.424
8.416
8.44
8.476
8.52
8.544
8.556
8.62
8.636
8.676
8.72
8.768
8.788
8.828
8.824
8.864
8.916
8.952
8.936
8.944
9.004
8.996
8.96
8.916
8.9
8.868
8.784
8.7
8.656
8.58
8.504
8.428
8.392
8.328
8.276
8.224
8.212
8.176
8.136
8.108
8.092
8.104
8.096
8.056
8.032
8.044
8.068
8.048
8.044
8.04
8.044
8.044
8.04
8.056
8.052
8.032
8.036
8.064
8.064
8.04
8.032
8.04
8.04
8.052
8.044
8.056
8.068
8.052
8.012
8.044
8.048
8.048
8.02
8.032
8.04
8.052
8.008
8.008
8.04
8.056
8.02
8.024
8.012
8.04
8.02
8.032
8.028
8.016
7.996
7.988
8
8.012
7.988
8
8.012
8.028
8.008
7.98
7.972
7.996
8.012
7.984
7.988
7.984
7.988
7.984
7.964
7.988
7.98
8
7.968
7.992
7.988
7.976
7.98
7.996
8.012
7.972
7.96
7.968
8
7.988
7.96
7.952
7.976
7.984
7.968
7.976
7.98
7.988
7.972
7.956
7.956
7.984
7.976
7.964
7.976
7.984
7.964
7.976
7.98
7.98
7.972
7.944
7.976
7.968
7.976
7.988
7.968
7.988
7.984
7.968
7.968
7.972
7.976
7.968
7.964
7.976
7.98
7.96
7.968
7.972
7.964
7.964
7.94
7.964
7.964
7.972
7.944
7.956
7.968
7.98
7.948
7.968
7.988
8.036
8.008
8.036
8.084
8.096
8.028
8.024
8.06
8.116
8.12
8.092
8.064
8.064
8.036
7.988
8.008
7.992
8.004
7.972
7.984
7.976
7.948
7.916
7.892
7.912
7.932
7.888
7.912
7.924
7.924
7.912
7.9
7.896
7.852
7.772
7.82
7.94
8.228
8.676
9.172
9.816
10.22
9.908
9.268
8.744
8.312
7.916
7.74
7.824
7.952
8.02
8.016
8.032
8.02
8.016
7.988
7.96
8
8.012
7.992
7.976
7.98
8.016
7.996
7.976
7.988
7.996
8.008
8.008
8.016
8.016
8.024
8.016
8.048
8.036
8.032
8.024
8.048
8.056
8.08
8.072
8.076
8.088
8.096
8.108
8.096
8.104
8.132
8.148
8.172
8.152
8.208
8.224
8.188
8.228
8.268
8.292
8.276
8.304
8.352
8.376
8.416
8.424
8.452
8.528
8.52
8.552
8.62
8.656
8.672
8.688
8.764
8.788
8.824
8.832
8.876
8.912
8.904
8.884
8.908
8.904
8.884
8.804
8.756
8.708
8.656
8.6
8.508
8.424
8.376
8.296
8.244
8.204
8.144
8.108
8.072
8.076
8.052
8.016
8.004
7.972
8.02
8
7.94
7.964
7.96
7.98
7.956
7.948
7.952
7.968
7.948
7.96
7.988
7.972
7.968
7.976
7.976
7.98
7.968
7.96
7.98
7.98
7.964
7.932
7.96
7.952
7.98
7.964
7.944
7.956
7.952
7.94
7.936
7.96
7.976
7.92
7.92
7.964
7.968
7.948
7.916
7.94
7.948
7.948
7.936
7.916
7.928
7.92
7.924
7.948
7.908
7.928
7.904
7.908
7.94
7.928
7.912
7.912
7.924
7.944
7.896
7.88
7.884
7.896
7.92
7.904
7.896
7.92
7.912
7.884
7.9
7.908
7.888
7.896
7.904
7.896
7.916
7.892
7.904
7.896
7.924
7.892
7.884
7.912
7.916
7.904
7.892
7.92
7.892
7.876
7.876
7.904
7.912
7.908
7.868
7.9
7.904
7.9
7.868
7.888
7.916
7.912
7.88
7.904
7.904
7.896
7.88
7.872
7.908
7.888
7.9
7.888
7.908
7.912
7.876
7.864
7.904
7.912
7.912
7.892
7.9
7.876
7.884
7.908
7.892
7.912
7.904
7.896
7.916
7.892
7.904
7.884
7.876
7.92
7.904
7.896
7.88
7.904
7.936
7.916
7.92
7.932
7.972
7.988
7.996
8.024
7.988
7.984
7.996
8.052
8.084
8.056
8.008
7.984
7.996
7.968
7.932
7.936
7.94
7.944
7.912
7.884
7.904
7.864
7.852
7.828
7.848
7.876
7.88
7.848
7.888
7.904
7.884
7.836
7.804
7.764
7.76
7.864
8.108
8.56
9.068
9.664
10.128
9.992
9.384
8.832
8.38
7.964
7.724
7.792
7.888
7.98
8.008
8
7.988
8
8.024
7.976
7.964
7.976
7.976
7.992
7.952
7.984
7.98
7.988
7.956
8.004
8.004
8.012
8
7.992
8.028
8.02
8.016
8
8.04
8.06
8.056
8.052
8.068
8.092
8.096
8.08
8.088
8.108
8.124
8.124
8.136
8.16
8.18
8.168
8.184
8.224
8.244
8.24
8.248
8.308
8.308
8.348
8.328
8.392
8.424
8.456
8.488
8.528
8.576
8.588
8.612
8.652
8.728
8.728
8.776
8.804
8.86
8.908
8.896
8.936
8.956
8.992
8.972
8.94
8.928
8.892
8.832
8.764
8.736
8.656
8.58
8.484
8.46
8.392
8.328
8.232
8.196
8.188
8.168
8.116
8.092
8.076
8.088
8.052
8.036
8.048
8.048
8.028
8.012
8.008
8.024
7.992
7.996
8.024
8.024
8.008
8.008
8.008
8.048
8.04
8.016
8.036
8.04
8.056
8.02
7.996
8.016
8.044
8.032
8.032
8.056
8.052
8.028
8.016
8.056
8.064
8.016
8.008
8.028
8.02
8.044
8.008
8.04
8.028
8.024
8.008
8.036
8.044
8.024
8.008
8.036
8.06
8.064
8.016
7.992
8.004
8.04
8.008
8.004
8.024
8.028
8.032
8.004
8.012
8.02
8.004
8
8.028
8.008
7.984
7.988
8.016
8.024
8.012
7.98
7.984
8.02
8.024
8.004
7.992
8.016
8.016
8.004
8.012
8.012
8.004
7.988
7.996
8.028
8.028
8.008
8
8
8.024
8.016
8.008
8.004
8.02
8.008
8.024
8.02
8.028
8.024
7.992
8.02
8.028
8.02
8
8.008
8.016
8.024
7.996
8.004
8.012
8.044
8.024
8
8.028
8.02
8.036
8.016
8.032
8.024
8.024
8
8.02
8.048
8.052
7.992
8.028
8.02
8.02
8.016
8.02
8.084
8.092
8.104
8.088
8.072
8.092
8.108
8.12
8.156
8.164
8.136
8.108
8.112
8.116
8.06
8.024
8.052
8.08
8.052
8.016
8.004
7.996
8.004
7.972
7.948
7.948
7.968
7.98
7.972
8
7.984
7.988
7.956
7.928
7.844
7.872
7.98
8.272
8.736
9.308
9.896
10.232
9.96
9.348
8.9
8.428
7.98
7.82
7.84
7.944
8.044
8.076
8.1
8.08
8.1
8.104
8.072
8.024
8.076
8.088
8.064
8.068
8.072
8.096
8.108
8.088
8.088
8.096
8.116
8.092
8.1
8.124
8.104
8.116
8.104
8.128
8.156
8.12
8.152
8.164
8.18
8.168
8.152
8.176
8.196
8.2
8.208
8.22
8.26
8.24
8.236
8.244
8.288
8.308
8.312
8.316
8.348
8.396
8.404
8.42
8.452
8.488
8.524
8.54
8.592
8.636
8.672
8.688
8.736
8.8
8.82
8.84
8.868
8.924
8.924
8.928
8.96
9
9.024
8.992
8.956
8.96
8.932
8.856
8.792
8.736
8.656
8.56
8.512
8.464
8.412
8.316
8.244
8.236
8.228
8.18
8.116
8.124
8.132
8.088
8.064
8.044
8.068
8.064
8.072
8.072
8.06
8.056
8.044
8.032
8.076
8.092
8.06
8.028
8.056
8.056
8.068
8.04
8.04
8.068
8.068
8.044
8.04
8.056
8.06
8.048
8.032
8.068
8.044
8.02
8.028
8.06
8.056
8.02
7.996
8.028
8.032
8.024
7.996
8.016
8.044
8.04
8.008
7.984
8.012
8
7.98
7.984
8.004
8
7.98
7.992
8.016
8.028
7.976
7.972
8.004
7.996
7.984
7.952
7.988
7.98
7.996
7.968
7.972
7.98
7.968
7.964
7.98
8.008
7.964
7.96
7.992
7.972
7.98
7.96
7.96
7.98
7.984
7.96
7.96
7.964
7.98
7.968
7.968
7.984
7.972
7.944
7.94
7.936
7.96
7.976
7.944
7.952
7.984
7.964
7.948
7.964
7.964
7.944
7.936
7.964
7.964
7.964
7.94
7.972
7.984
7.972
7.96
7.944
7.98
7.956
7.944
7.948
7.968
8
7.964
7.948
7.968
7.98
7.98
7.976
7.956
7.984
7.968
7.948
8
8.044
8.044
8.052
8.056
8.04
8.06
8.048
8.072
8.12
8.132
8.08
8.032
8.028
8.012
7.996
7.968
7.984
7.992
7.972
7.984
7.968
7.96
7.916
7.892
7.876
7.928
7.932
7.888
7.88
7.936
7.944
7.92
7.872
7.804
7.796
7.888
8.056
8.448
8.94
9.508
10.08
10.14
9.62
9.028
8.54
8.08
7.788
7.82
7.92
7.976
8.036
8.048
8.028
8.008
8.012
8.032
8.012
7.984
8.032
8.028
8
7.992
8.032
8.012
8.008
7.996
8.016
8.052
8.048
8.044
8.012
8.028
8.084
8.096
8.052
8.08
8.072
8.08
8.056
8.096
8.104
8.092
8.1
8.16
8.168
8.14
8.136
8.16
8.196
8.192
8.168
8.208
8.228
8.256
8.264
8.288
8.324
8.344
8.356
8.4
8.412
8.452
8.476
8.512
8.588
8.608
8.636
8.64
8.688
8.748
8.788
8.776
8.852
8.876
8.904
8.904
8.952
8.94
8.94
8.904
8.9
8.896
8.84
8.748
8.7
8.644
8.576
8.5
8.416
8.38
8.32
8.232
8.176
8.172
8.14
8.1
8.072
8.08
8.044
8.024
8
8.012
8.036
7.988
7.968
7.972
7.988
7.996
7.988
7.98
7.976
8.004
8.008
7.984
8
8
7.988
7.972
7.988
8.012
7.984
7.972
7.98
8.02
7.988
7.976
8
8.004
7.996
7.988
7.964
7.996
7.984
7.992
7.976
7.992
7.98
7.972
7.96
7.976
7.98
7.956
7.952
7.976
7.968
7.968
7.94
7.94
7.972
7.984
7.96
7.956
7.948
7.928
7.952
7.96
7.948
7.964
7.932
7.928
7.952
7.936
7.94
7.928
7.948
7.964
7.952
7.924
7.944
7.948
7.956
7.94
7.908
7.92
7.916
7.928
7.924
7.948
7.932
7.924
7.924
7.96
7.94
7.92
7.928
7.924
7.932
7.928
7.928
7.952
7.932
7.904
7.896
7.94
7.932
7.928
7.92
7.924
7.908
7.924
7.92
7.924
7.936
7.924
7.928
7.928
7.956
7.936
7.924
7.9
7.94
7.936
7.948
7.94
7.932
7.936
7.92
7.936
7.98
7.956
7.928
7.92
7.944
7.964
7.956
7.928
7.94
7.92
7.932
7.936
7.94
7.952
7.928
7.948
7.964
7.968
7.964
7.932
7.912
7.956
7.984
7.972
8.004
8.04
8.084
8.048
8.008
8.032
8.096
8.1
8.116
8.08
8.024
8.028
8
8
8
7.988
7.98
7.956
7.928
7.948
7.908
7.876
7.884
7.916
7.892
7.884
7.896
7.916
7.892
7.9
7.908
7.9
7.812
7.764
7.84
7.988
8.284
8.772
9.312
9.964
10.204
9.764
9.172
8.716
8.232
7.832
7.724
7.852
7.948
7.992
8.012
8.068
8.02
7.996
7.996
8.004
8.016
7.98
7.98
8.004
8.024
8.012
7.996
8.02
8.024
8
8.016
8.016
8.008
8.04
8.024
8.028
8.076
8.064
8.032
8.056
8.112
8.1
8.08
8.072
8.096
8.12
8.112
8.092
8.136
8.144
8.148
8.16
8.176
8.168
8.192
8.192
8.204
8.272
8.264
8.284
8.292
8.36
8.384
8.384
8.432
8.46
8.476
8.488
8.528
8.592
8.64
8.664
8.712
8.732
8.788
8.808
8.832
8.88
8.932
8.932
8.94
8.94
8.936
8.952
8.892
8.84
8.804
8.76
8.664
8.62
8.524
8.476
8.384
8.316
8.268
8.244
8.188
8.144
8.128
8.136
8.088
8.032
8.028
8.048
8.028
8.004
8
7.992
8
7.992
7.996
8.024
7.984
7.968
7.972
8.016
8.008
7.988
7.964
7.984
7.992
7.988
8
7.988
8.024
7.996
8.004
7.98
7.988
7.984
7.992
7.988
7.992
7.992
7.984
7.968
8.008
8.008
7.976
7.98
8.004
8.012
7.968
7.956
7.984
7.996
7.956
7.944
7.96
7.976
7.976
7.98
7.968
7.988
7.972
7.952
7.936
7.98
7.972
7.948
7.944
7.976
7.976
7.964
7.956
7.98
7.96
7.968
7.968
7.948
7.972
7.96
7.968
7.968
7.976
7.94
7.92
7.964
7.972
7.952
7.94
7.932
7.964
7.972
7.948
7.936
7.96
7.964
7.94
7.944
7.972
7.98
7.948
7.944
7.968
7.964
7.952
7.94
7.964
7.96
7.932
7.944
7.948
7.952
7.956
7.932
7.96
7.976
7.976
7.952
7.956
7.948
7.956
7.92
7.94
7.964
7.98
7.952
7.948
7.952
7.956
7.96
7.948
7.988
7.984
7.952
7.928
7.964
7.968
7.96
7.96
7.976
7.976
7.96
7.944
7.952
7.976
7.968
7.948
7.952
7.972
7.952
7.94
7.948
7.944
7.948
7.948
7.996
8.012
8.06
8.036
8.076
8.064
8.064
8.072
8.112
8.128
8.132
8.1
8.052
8.052
8.028
8.028
7.988
7.988
8.004
8.004
7.956
7.964
7.928
7.928
7.904
7.924
7.94
7.928
7.896
7.92
7.928
7.944
7.96
7.9
7.828
7.792
7.896
8.008
8.4
8.888
9.42
9.996
10.164
9.696
9.124
8.628
8.196
7.84
7.804
7.888
7.952
8.04
8.064
8.052
8.012
8.024
8.04
8.044
8.016
8.036
8.036
8.028
8.036
8.052
8.064
8.056
8.016
8.036
8.06
8.072
8.052
8.048
8.06
8.08
8.084
8.076
8.1
8.104
8.104
8.124
8.12
8.132
8.14
8.144
8.144
8.204
8.168
8.18
8.176
8.216
8.224
8.228
8.236
8.272
8.308
8.304
8.324
8.34
8.368
8.384
8.408
8.444
8.484
8.492
8.52
8.592
8.64
8.668
8.684
8.728
8.78
8.832
8.812
8.892
8.912
8.956
8.968
9.008
9.028
9.048
9.012
8.996
8.968
8.952
8.864
8.792
8.72
8.688
8.6
8.528
8.48
8.4
8.336
8.292
8.24
8.224
8.192
8.152
8.116
8.116
8.112
8.068
8.056
8.072
8.072
8.056
8.052
8.06
8.076
8.044
8.036
8.048
8.048
8.056
8.056
8.072
8.084
8.072
8.056
8.052
8.076
8.08
8.048
8.052
8.06
8.068
8.052
8.028
8.068
8.068
8.072
8.056
8.056
8.072
8.068
8.048
8.084
8.06
8.064
8.036
8.076
8.056
8.032
8.028
8.02
8.048
8.052
8.024
8.012
8.024
8.028
8.024
8.004
8.04
8.032
8.028
8.008
8.028
8.032
8.02
8.016
8.044
8.028
8.008
8.012
8.004
8.044
8.028
7.976
7.984
8.008
8.024
7.976
7.972
7.996
7.988
8.008
8.016
7.996
7.992
7.984
8.004
7.992
8.024
7.996
7.992
8.008
8.012
7.984
7.984
8.008
8.016
8.016
8
7.976
8.008
8.028
8
7.996
8.008
8.016
7.988
7.968
8.016
8.02
7.996
7.996
8.028
8.024
8.008
7.98
8.008
8.02
8.008
8.032
8.02
8.028
8.028
7.988
7.98
8.016
8
7.996
7.972
8.012
8.024
8.004
8.012
7.996
8.024
8.052
8.08
8.104
8.144
8.096
8.1
8.108
8.124
8.148
8.164
8.144
8.12
8.096
8.068
8.06
8.08
8.068
8.056
8.044
8.044
8.044
8.012
7.976
7.98
7.992
7.964
7.984
7.976
8.004
7.96
7.96
7.992
7.976
7.912
7.824
7.888
8.04
8.308
8.704
9.228
9.9
10.244
10
9.364
8.864
8.444
7.976
7.804
7.892
8
8.028
8.068
8.104
8.14
8.088
8.028
8.08
8.092
8.092
8.084
8.084
8.068
8.064
8.08
8.08
8.108
8.096
8.088
8.1
8.116
8.104
8.08
8.092
8.112
8.136
8.128
8.116
8.152
8.164
8.156
8.156
8.176
8.18
8.192
8.172
8.2
8.228
8.204
8.204
8.236
8.264
8.272
8.264
8.284
8.308
8.328
8.328
8.348
8.388
8.428
8.444
8.468
8.504
8.56
8.58
8.596
8.66
8.692
8.716
8.744
8.796
8.844
8.852
8.88
8.904
8.956
8.98
8.964
8.984
9
8.992
8.92
8.884
8.844
8.764
8.72
8.636
8.6
8.52
8.408
8.364
8.328
8.292
8.232
8.188
8.148
8.148
8.104
8.044
8.028
8.06
8.044
8.04
8.044
8.04
8.032
8.004
8.024
8.028
8.04
8.012
8.008
8.012
8.04
8.024
7.996
8.016
8.052
8.032
8.012
8.008
8.032
8.032
7.996
8.012
8.044
8.016
7.992
8.012
8.024
8.04
7.996
7.992
8.02
8.008
7.992
7.976
8.012
7.992
8
7.988
7.996
7.996
7.992
7.968
7.992
8.008
8.008
7.956
7.968
7.976
7.984
7.956
7.952
7.992
7.972
7.952
7.952
7.964
7.976
7.952
7.956
7.988
7.976
7.972
7.932
7.972
7.984
7.964
7.94
7.96
7.996
7.984
7.932
7.956
7.964
7.972
7.956
7.968
7.964
7.956
7.932
7.944
7.972
7.952
7.948
7.96
7.992
7.98
7.936
7.912
7.936
7.968
7.96
7.94
7.924
7.968
7.936
7.936
7.928
7.948
7.936
7.952
7.936
7.936
7.952
7.924
7.92
7.952
7.968
7.924
7.904
7.952
7.968
7.936
7.928
7.956
7.94
7.936
7.952
7.944
7.968
7.964
7.936
7.924
7.944
7.964
7.92
7.932
7.956
7.96
7.936
7.936
7.932
7.988
7.936
7.916
7.96
7.96
7.956
7.952
7.98
8.008
8.044
8.024
8.024
8.048
8.028
8.056
8.088
8.12
8.1
8.036
8.016
8.008
7.992
7.964
7.98
7.98
7.964
7.944
7.916
7.932
7.908
7.888
7.856
7.904
7.924
7.884
7.88
7.892
7.912
7.92
7.868
7.764
7.74
7.82
7.992
8.34
8.832
9.388
10.004
10.144
9.696
9.108
8.6
8.14
7.772
7.76
7.868
7.912
8.008
8.036
8.028
7.988
8.02
8.012
8.012
7.988
7.992
8.016
8.008
7.976
8
8.036
8.024
8.008
8
8.028
8.068
8.016
8.02
8.04
8.052
8.04
8.024
8.056
8.064
8.08
8.068
8.088
8.104
8.116
8.088
8.108
8.116
8.136
8.116
8.144
8.16
8.18
8.168
8.16
8.204
8.228
8.256
8.256
8.28
8.296
8.34
8.356
8.396
8.432
8.444
8.452
8.496
8.596
8.604
8.6
8.652
8.708
8.76
8.772
8.792
8.852
8.872
8.896
8.916
8.92
8.932
8.916
8.9
8.904
8.848
8.78
8.7
8.664
8.612
8.508
8.44
8.364
8.348
8.288
8.212
8.172
8.156
8.116
8.064
8.056
8.06
8.024
8
7.98
8.004
8.016
7.964
7.964
7.968
8.012
7.98
7.956
7.976
7.964
7.972
7.98
7.968
7.976
7.976
7.964
7.976
7.984
7.988
7.964
7.976
7.996
8.004
7.984
7.96
7.98
7.992
7.976
7.964
7.988
7.996
7.992
7.976
7.98
7.98
7.948
7.94
7.976
8.004
7.96
7.94
7.94
7.98
7.984
7.96
7.96
7.94
7.96
7.944
7.944
7.952
7.976
7.928
7.94
7.956
7.956
7.936
7.916
7.96
7.972
7.956
7.928
7.936
7.964
7.956
7.924
7.928
7.952
7.944
7.952
7.932
7.96
7.94
7.948
7.916
7.96
7.952
7.932
7.908
7.932
7.956
7.944
7.912
7.94
7.964
7.956
7.948
7.952
7.96
7.956
7.956
7.944
7.948
7.952
7.936
7.936
7.992
7.984
7.94
7.952
7.972
7.972
7.948
7.936
7.964
7.96
7.956
7.932
7.956
7.992
7.964
7.952
7.956
7.968
7.98
7.948
7.948
7.988
7.956
7.944
7.944
7.98
7.996
7.952
7.964
7.964
7.968
7.964
7.932
7.964
7.976
7.952
7.948
7.964
7.956
7.968
7.94
7.96
7.996
8.024
8.036
8.04
8.092
8.048
7.992
8.028
8.116
8.124
8.116
8.084
8.048
8.068
8.004
7.976
8.012
8.028
8
7.944
7.944
7.988
7.944
7.884
7.888
7.92
7.932
7.916
7.912
7.92
7.936
7.92
7.904
7.916
7.852
7.752
7.832
8.02
8.372
8.856
9.416
10.012
10.18
9.704
9.096
8.668
8.208
7.8
7.768
7.856
7.988
8.02
8.04
8.056
8.06
8.04
8.008
8.008
8.032
8.056
8.02
8.02
8.036
8.028
8.028
8.016
8.036
8.04
8.052
8.048
8.056
8.068
8.068
8.08
8.084
8.112
8.108
8.084
8.072
8.132
8.136
8.136
8.104
8.152
8.184
8.164
8.164
8.172
8.2
8.196
8.208
8.22
8.236
8.248
8.264
8.316
8.332
8.344
8.336
8.4
8.424
8.468
8.476
8.496
8.576
8.616
8.556
8.636
8.692
8.736
8.776
8.816
8.864
8.884
8.92
8.928
8.972
9.012
9.032
9.024
9.012
9.012
8.988
8.912
8.864
8.816
8.76
8.684
8.62
8.552
8.46
8.356
8.336
8.3
8.268
8.188
8.16
8.14
8.132
8.092
8.048
8.08
8.1
8.084
8.048
8.036
8.044
8.056
8.044
8.052
8.052
8.08
8.052
8.056
8.04
8.06
8.048
8.024
8.052
8.068
8.064
8.056
8.052
8.06
8.052
8.04
8.024
8.032
8.04
8.04
8.052
8.06
8.036
8.044
8.036
8.084
8.04
8.024
8.036
8.064
8.072
8.032
8.02
8.032
8.044
8.036
8.012
8.04
8.056
8.048
8.044
8.052
8.028
8
7.984
8.008
8.036
8.008
7.984
7.996
8.02
8.032
7.984
8
8.004
8.004
8.004
8.012
8.012
8
8
7.976
8.024
8.012
7.972
7.96
7.992
8.032
8.008
7.996
8.004
8.008
8.012
8
8.012
8.028
7.996
8
8
8.012
8.02
8.004
7.992
8.016
8.016
7.992
8
8.016
8.024
8.008
7.992
7.992
8.028
8.016
7.996
8.012
8.032
8.012
7.984
7.996
8.032
8.028
7.992
8.004
8.028
8.024
8.024
8.04
8.088
8.104
8.096
8.076
8.06
8.072
8.088
8.148
8.164
8.156
8.124
8.116
8.12
8.08
8.048
8.028
8.048
8.044
8.044
8
7.964
7.98
7.976
7.976
7.944
7.984
7.98
7.984
7.992
8.008
8.012
7.972
7.924
7.848
7.844
7.916
8.128
8.552
9.08
9.696
10.184
10.144
9.592
9.052
8.62
8.124
7.84
7.824
7.94
7.996
8.088
8.1
8.092
8.08
8.104
8.112
8.064
8.072
8.072
8.084
8.092
8.076
8.084
8.104
8.112
8.084
8.108
8.124
8.112
8.12
8.116
8.152
8.128
8.096
8.128
8.156
8.172
8.152
8.16
8.164
8.184
8.188
8.184
8.184
8.208
8.208
8.236
8.232
8.272
8.264
8.268
8.308
8.324
8.324
8.308
8.332
8.388
8.436
8.416
8.436
8.48
8.556
8.58
8.58
8.62
8.648
8.676
8.732
8.776
8.828
8.832
8.868
8.896
8.928
8.964
8.968
9.004
9.024
9.02
8.996
8.968
8.928
8.916
8.836
8.752
8.732
8.656
8.56
8.452
8.416
8.392
8.32
8.248
8.228
8.232
8.168
8.14
8.132
8.124
8.116
8.052
8.076
8.1
8.08
8.048
8.068
8.088
8.088
8.076
8.084
8.112
8.088
8.076
8.052
8.076
8.092
8.084
8.068
8.06
8.08
8.072
8.064
8.068
8.068
8.072
8.076
8.072
8.08
8.064
8.044
8.06
8.084
8.084
8.044
8.04
8.064
8.088
8.052
8.028
8.032
8.072
8.044
8.02
8.036
8.056
8.024
8.004
8.028
8.02
8.044
8.016
8.008
8.036
8.04
8.016
8.024
8.032
8.04
8.012
7.984
8.008
8.032
8
7.996
8
8.008
7.98
7.976
8.012
8.032
8.004
7.98
8.012
8.008
7.98
7.988
7.984
8.004
8.02
7.984
7.992
7.996
8.008
7.996
7.996
8.012
8.02
7.98
7.984
7.988
8.016
7.984
7.964
8.004
8.028
8.012
7.972
7.996
8.016
8.008
7.964
7.984
8.004
8
7.972
7.968
7.996
8
7.992
7.996
8.02
8.02
7.968
7.976
7.988
8.036
7.992
7.964
7.968
8.008
8
7.996
8.008
7.992
7.988
8.004
8.036
8.096
8.096
8.088
8.048
8.072
8.056
8.124
8.132
8.132
8.12
8.08
8.084
8.056
8.048
8.036
8.016
8.016
8.016
7.984
7.976
7.972
7.964
7.924
7.92
7.908
7.948
7.944
7.936
7.936
7.936
7.944
7.916
7.84
7.804
7.868
8.032
8.38
8.868
9.404
10.036
10.196
9.764
9.168
8.672
8.204
7.832
7.808
7.904
7.956
8.044
8.072
8.064
8.044
8.008
8.048
8.056
8.028
8.02
8.032
8.04
8.032
8.02
8.04
8.048
8.028
8.032
8.056
8.084
8.076
8.056
8.06
8.084
8.096
8.076
8.08
8.1
8.1
8.084
8.1
8.116
8.14
8.12
8.128
8.16
8.188
8.18
8.168
8.184
8.22
8.236
8.216
8.224
8.268
8.288
8.292
8.34
8.364
8.356
8.38
8.432
8.472
8.492
8.496
8.54
8.62
8.66
8.652
8.676
8.744
8.812
8.824
8.844
8.868
8.92
8.928
8.924
8.96
8.968
8.944
8.916
8.928
8.908
8.804
8.728
8.672
8.632
8.548
8.468
8.408
8.36
8.316
8.244
8.164
8.152
8.148
8.1
8.088
8.076
8.084
8.036
7.996
8.032
8.052
7.988
8
8.004
8.036
8.016
8.008
7.992
8.016
8.012
8.024
8.008
8.004
8.02
8.008
8.02
8.052
8.048
8.004
7.992
8.012
8.044
8.012
8.024
8.032
8.016
8.008
8
8.004
8.012
8.028
8.008
8.004
8
8.02
8.004
7.992
8
8
7.992
7.984
8.004
8.036
8
7.972
7.972
8
8.008
7.98
7.98
8.016
7.996
7.968
7.976
8
7.972
7.976
7.972
7.98
7.988
7.96
7.976
7.968
7.976
7.948
7.976
7.972
7.992
7.98
7.952
7.988
7.992
7.944
7.956
7.968
7.988
7.96
7.952
7.96
7.976
7.992
7.952
7.98
8.004
7.996
7.944
7.94
7.948
7.952
7.932
7.96
7.964
7.976
7.948
7.928
7.988
7.972
7.976
7.968
7.956
7.984
7.984
7.948
7.964
7.996
7.988
7.968
7.968
7.992
7.968
7.964
7.96
7.972
7.984
7.972
7.984
8
7.996
7.968
7.956
7.98
7.988
7.956
7.94
7.96
7.984
7.964
7.964
7.996
7.996
7.98
7.984
7.972
7.992
8.008
7.976
7.988
7.984
7.988
7.98
7.968
7.996
8.056
8.072
8.08
8.088
8.08
8.044
8.048
8.128
8.168
8.164
8.14
8.096
8.116
8.056
8.016
8.016
8.048
8.028
7.976
7.984
7.988
7.984
7.956
7.92
7.952
7.948
7.964
7.94
7.964
7.948
7.948
7.948
7.936
7.86
7.788
7.852
8.024
8.384
8.864
9.38
9.984
10.22
9.78
9.172
8.68
8.244
7.876
7.784
7.904
8
8.028
8.056
8.04
8.076
8.052
8.016
8.012
8.016
8.032
8.036
8.024
8.02
8.048
8.048
8.016
8.02
8.064
8.068
8.032
8.048
8.08
8.06
8.048
8.044
8.08
8.112
8.088
8.048
8.088
8.104
8.116
8.112
8.1
8.14
8.132
8.132
8.164
8.188
8.18
8.172
8.216
8.252
8.236
8.244
8.252
8.296
8.34
8.292
8.34
8.388
8.416
8.444
8.464
8.528
8.58
8.596
8.632
8.668
8.712
8.712
8.756
8.796
8.868
8.88
8.892
8.928
8.976
8.988
8.952
8.948
8.944
8.936
8.88
8.844
8.8
8.712
8.644
8.58
8.5
8.436
8.38
8.308
8.252
8.22
8.192
8.136
8.128
8.1
8.068
8.048
8.048
8.032
8.02
8.016
8.008
8.04
8.036
8.012
8.016
8.044
8.032
8.02
8.016
8.044
8.064
8.016
7.984
8.02
8.024
8.032
8.012
8.012
8.016
8.004
8.032
8.028
8.024
8.004
8.016
8.028
8.048
8.012
8.012
7.992
8.032
8.044
8.008
7.98
8.016
8.028
8
7.992
8.02
8.024
7.996
7.976
8.012
8.016
8.008
7.98
7.984
7.992
7.976
7.968
7.968
7.976
8.02
7.984
7.984
7.984
7.984
7.96
7.952
7.944
7.988
7.964
7.968
7.996
7.98
7.964
7.932
7.952
7.988
7.96
7.968
7.948
7.992
7.988
7.96
7.96
7.968
7.98
7.964
7.968
7.98
7.976
7.924
7.944
7.984
7.988
7.976
7.936
7.968
7.988
7.968
7.948
7.972
7.964
7.984
7.972
7.956
7.98
7.976
7.944
7.964
7.956
7.968
7.976
7.98
7.98
7.98
7.952
7.94
7.956
7.992
7.976
7.956
7.952
7.988
7.968
7.968
7.964
8.004
7.972
7.968
7.972
7.996
7.98
7.948
7.98
7.984
8
7.984
7.972
7.964
7.992
7.976
7.944
7.992
7.992
7.968
7.956
7.984
8.008
8.016
8.024
8.06
8.132
8.116
8.056
8.044
8.096
8.152
8.144
8.12
8.112
8.08
8.096
8.044
8.008
8.02
8.016
8.032
8.004
8.008
7.968
7.928
7.944
7.972
7.936
7.928
7.936
7.984
7.976
7.956
7.952
7.968
7.936
7.828
7.804
7.932
8.116
8.48
9.012
9.628
10.172
10.152
9.592
9.052
8.624
8.144
7.804
7.828
7.96
8.032
8.04
8.1
8.08
8.096
8.068
8.072
8.08
8.06
8.06
8.076
8.108
8.076
8.064
8.064
8.084
8.104
8.092
8.068
8.068
8.092
8.108
8.108
8.12
8.124
8.108
8.12
8.136
8.144
8.152
8.14
8.168
8.176
8.192
8.184
8.204
8.24
8.248
8.196
8.216
8.244
8.276
8.276
8.284
8.332
8.34
8.34
8.344
8.404
8.436
8.448
8.444
8.504
8.56
8.584
8.6
8.648
8.696
8.744
8.74
8.8
8.852
8.892
8.928
8.956
8.996
9.016
9.036
9.048
9.056
9.072
9.036
8.976
8.964
8.912
8.852
8.752
8.696
8.628
8.548
8.464
8.404
8.38
8.32
8.276
8.244
8.22
8.152
8.128
8.124
8.14
8.136
8.092
8.088
8.1
8.112
8.096
8.064
8.088
8.108
8.104
8.084
8.096
8.096
8.112
8.092
8.116
8.124
8.092
8.088
8.116
8.108
8.092
8.092
8.096
8.116
8.116
8.1
8.104
8.076
8.112
8.1
8.096
8.088
8.084
8.084
8.076
8.084
8.076
8.06
8.048
8.056
8.092
8.084
8.076
8.076
8.072
8.076
8.068
8.06
8.072
8.064
8.028
8.048
8.068
8.064
8.056
8.068
8.072
8.064
8.048
8.02
8.04
8.052
8.04
8.044
8.028
8.04
8.068
8.04
8.036
8.036
8.044
8.024
8.056
8.048
8.044
8.012
8.012
8.04
8.06
8.028
8.036
8.036
8.064
8.028
8.032
8.052
8.056
8.052
8.024
8.02
8.036
8.048
8.028
8.048
8.04
8.064
8.028
8.052
8.084
8.092
8.052
8.02
8.052
8.06
8.052
8.048
8.068
8.072
8.06
8.06
8.052
8.064
8.052
8.056
8.052
8.076
8.068
8.036
8.044
8.06
8.064
8.076
8.116
8.128
8.128
8.136
8.116
8.124
8.124
8.148
8.216
8.224
8.188
8.14
8.144
8.128
8.124
8.088
8.092
8.088
8.092
8.064
8.036
8.016
8.02
8.016
8.012
8.012
7.996
8.028
8
8.024
8.056
8.04
7.98
7.896
7.876
7.936
8.076
8.4
8.88
9.46
10.072
10.272
9.856
9.26
8.812
8.364
7.936
7.828
7.956
8.024
8.084
8.132
8.152
8.128
8.108
8.132
8.128
8.128
8.08
8.116
8.144
8.124
8.092
8.124
8.14
8.124
8.152
8.16
8.172
8.16
8.128
8.164
8.188
8.188
8.152
8.168
8.192
8.208
8.208
8.18
8.224
8.232
8.216
8.228
8.248
8.272
8.244
8.244
8.3
8.312
8.312
8.304
8.332
8.352
8.36
8.364
8.404
8.432
8.456
8.46
8.48
8.552
8.588
8.62
8.632
8.684
8.732
8.728
8.768
8.816
8.86
8.888
8.92
8.984
8.996
8.98
9.016
9.048
9.08
9.06
9.028
8.992
8.964
8.912
8.852
8.78
8.716
8.648
8.556
8.492
8.444
8.404
8.344
8.28
8.248
8.236
8.192
8.172
8.136
8.128
8.14
8.128
8.096
8.124
8.1
8.108
8.096
8.108
8.108
8.084
8.076
8.108
8.108
8.088
8.064
8.088
8.12
8.108
8.096
8.088
8.104
8.1
8.092
8.084
8.1
8.1
8.092
8.092
8.116
8.108
8.064
8.096
8.108
8.108
8.076
8.064
8.092
8.096
8.048
8.056
8.06
8.08
8.056
8.052
8.068
8.06
8.028
8.036
8.068
8.076
8.056
8.048
8.04
8.06
8.048
8.016
8.044
8.032
8.04
8.024
8.044
8.052
8.06
8.016
8.024
8.056
8.04
8.016
8.024
8.056
8.064
8.012
8.008
8.044
8.056
8.044
8.028
8.04
8.04
8.04
8.036
8.036
8.036
8.048
8
8.02
8.04
8.044
8.012
8.004
8.048
8.06
8.008
8.012
8.016
8.044
8.02
8.016
8.048
8.036
8.028
8.024
8.048
8.02
8.04
8.008
8.024
8.028
8.044
8.02
8.012
8.044
8.036
8.024
8.016
8.044
8.056
8.028
8
8.028
8.044
8.028
8.024
8.068
8.088
8.088
8.108
8.136
8.128
8.12
8.096
8.156
8.2
8.212
8.144
8.1
8.1
8.072
8.056
8.056
8.056
8.06
8.04
7.996
8.036
8.008
7.96
7.932
7.96
7.992
7.968
7.964
7.98
7.98
8.004
7.944
7.928
7.888
7.84
7.944
8.12
8.504
8.992
9.572
10.164
10.236
9.68
9.076
8.592
8.196
7.864
7.856
7.924
8.024
8.092
8.12
8.128
8.096
8.076
8.076
8.052
8.08
8.068
8.06
8.04
8.044
8.08
8.088
8.06
8.044
8.06
8.096
8.104
8.1
8.116
8.108
8.12
8.096
8.136
8.152
8.14
8.128
8.168
8.164
8.16
8.176
8.188
8.212
8.22
8.168
8.192
8.248
8.272
8.24
8.248
8.292
8.304
8.32
8.332
8.368
8.36
8.384
8.4
8.472
8.484
8.516
8.52
8.584
8.636
8.668
8.676
8.724
8.78
8.812
8.848
8.864
8.916
8.928
8.972
9.008
9.02
9.044
9.012
9.004
9.024
8.98
8.916
8.852
8.8
8.756
8.672
8.572
8.488
8.46
8.416
8.34
8.284
8.256
8.224
8.164
8.168
8.168
8.136
8.096
8.092
8.108
8.104
8.084
8.068
8.08
8.092
8.072
8.064
8.084
8.068
8.064
8.06
8.04
8.056
8.092
8.052
8.068
8.1
8.076
8.076
8.06
8.088
8.056
8.052
8.052
8.056
8.092
8.08
8.032
8.076
8.072
8.072
8.06
8.068
8.076
8.052
8.064
8.08
8.076
8.056
8.024
8.028
8.06
8.056
8.024
8.012
8.04
8.064
8.056
8.016
8.052
8.044
8.028
8.008
8.036
8.024
8.032
8.012
8.048
8.056
8.008
8.004
8.032
8.036
8.032
8.004
8.028
8.02
8.024
8.02
8.016
8.008
8.048
8.02
8.028
8.036
8.02
7.988
8.016
8.044
8.044
8.024
8.004
8.032
8.024
8.024
8.012
8.004
7.996
8.012
8.012
8.016
8.04
8.032
8.012
8.024
8.06
8.044
8.02
8.008
8.024
8.048
8.032
7.992
8.036
8.044
8.044
8.02
8.036
8.028
8.008
8.028
8.02
8.036
8.036
8.004
8.028
8.044
8.04
8.016
8.032
8.032
8.04
8.028
8.016
8.032
8.036
8.008
8.028
8.02
8.056
8.064
8.096
8.124
8.16
8.104
8.072
8.116
8.164
8.18
8.18
8.144
8.144
8.12
8.084
8.056
8.072
8.044
8.048
8.036
8.048
8.02
7.98
7.956
8.004
7.996
7.98
7.956
7.988
8.02
7.992
7.988
7.988
7.964
7.888
7.84
7.928
8.096
8.444
8.928
9.472
10.088
10.244
9.752
9.18
8.74
8.292
7.88
7.808
7.948
8.068
8.092
8.088
8.12
8.12
8.076
8.088
8.08
8.092
8.092
8.072
8.092
8.108
8.088
8.084
8.088
8.128
8.1
8.112
8.108
8.112
8.144
8.116
8.132
8.116
8.132
8.152
8.164
8.148
8.192
8.172
8.176
