4088.268
8.212
8.176
8.12
8.036
7.984
7.98
7.964
7.912
7.884
7.916
7.928
7.916
7.844
7.884
7.916
7.892
7.868
7.888
7.892
7.88
7.856
7.868
7.92
7.912
7.892
7.864
7.912
7.904
7.876
7.868
7.924
7.92
7.908
7.88
7.896
7.94
7.892
7.88
7.9
7.92
7.908
7.904
7.9
7.932
7.916
7.892
7.888
7.928
7.916
7.916
7.9
7.928
7.928
7.896
7.868
7.9
7.932
7.908
7.876
7.924
7.944
7.908
7.88
7.888
7.928
7.932
7.896
7.888
7.936
7.888
7.892
7.884
7.936
7.924
7.896
7.908
7.952
7.944
7.92
7.892
7.944
7.944
7.956
7.924
7.948
7.94
7.932
7.9
7.92
7.96
7.944
7.924
7.94
7.976
7.948
7.94
7.916
7.98
7.952
7.936
7.924
7.956
7.956
7.932
7.908
7.952
7.976
7.964
7.944
7.96
7.964
7.948
7.956
7.952
7.996
7.96
7.956
7.956
7.988
7.968
7.948
7.944
7.988
7.996
7.98
7.972
7.992
8
7.98
7.972
7.984
7.976
8.004
7.968
7.984
8.028
7.988
7.98
7.996
8.012
8.04
8
8.004
8.024
8.016
7.98
8
8.028
8.028
8.012
7.984
8.012
8.056
7.996
8
8.044
8.056
8.028
8.016
8.02
8.068
8.008
8.044
8.04
8.06
8.068
8.032
8.02
8.068
8.06
8.036
8.032
8.072
8.08
8.044
8.028
8.044
8.056
8.048
8.06
8.076
8.096
8.076
8.036
8.084
8.08
8.064
8.072
8.064
8.092
8.08
8.04
8.076
8.104
8.1
8.044
8.056
8.108
8.108
8.104
8.124
8.188
8.216
8.212
8.264
8.28
8.308
8.224
8.16
8.164
8.196
8.176
8.136
8.164
8.176
8.116
8.084
8.088
8.132
8.112
8.104
8.092
8.128
8.116
8.12
8.076
8.116
8.148
8.092
8.008
7.992
8.132
8.4
8.82
9.36
9.988
10.556
11.004
11.096
10.98
10.052
8.868
8.264
8.06
8.088
8.152
8.192
8.256
8.296
8.224
8.196
8.22
8.248
8.196
8.188
8.204
8.24
8.212
8.204
8.212
8.24
8.22
8.208
8.216
8.252
8.244
8.212
8.24
8.268
8.256
8.256
8.216
8.284
8.272
8.26
8.256
8.28
8.332
8.296
8.288
8.296
8.348
8.336
8.316
8.352
8.4
8.388
8.4
8.408
8.464
8.46
8.456
8.46
8.556
8.584
8.58
8.604
8.684
8.704
8.716
8.756
8.816
8.904
8.904
8.936
8.996
9.048
9.08
9.096
9.092
9.16
9.128
9.076
9.048
9.032
8.924
8.836
8.744
8.692
8.636
8.544
8.46
8.432
8.372
8.32
8.272
8.276
8.292
8.232
8.18
8.204
8.228
8.192
8.164
8.188
8.228
8.196
8.188
8.184
8.204
8.196
8.156
8.172
8.224
8.212
8.188
8.164
8.192
8.212
8.176
8.164
8.208
8.216
8.184
8.144
8.188
8.192
8.168
8.16
8.188
8.208
8.2
8.18
8.164
8.204
8.176
8.148
8.176
8.188
8.188
8.176
8.112
8.184
8.18
8.176
8.16
8.168
8.192
8.152
8.144
8.164
8.192
8.164
8.164
8.184
8.196
8.164
8.152
8.152
8.172
8.184
8.152
8.168
8.192
8.196
8.164
8.148
8.184
8.2
8.18
8.156
8.18
8.212
8.148
8.136
8.168
8.204
8.172
8.184
8.164
8.208
8.168
8.164
8.176
8.184
8.176
8.172
8.152
8.196
8.184
8.16
8.136
8.172
8.196
8.16
8.156
8.188
8.192
8.164
8.144
8.172
8.212
8.16
8.16
8.172
8.188
8.172
8.14
8.164
8.184
8.212
8.188
8.184
8.176
8.176
8.152
8.152
8.188
8.212
8.18
8.176
8.184
8.192
8.18
8.152
8.192
8.208
8.196
8.2
8.2
8.212
8.2
8.18
8.18
8.2
8.216
8.2
8.176
8.228
8.208
8.18
8.188
8.196
8.232
8.204
8.184
8.212
8.228
8.18
8.18
8.216
8.24
8.216
8.184
8.188
8.228
8.22
8.188
8.188
8.248
8.292
8.3
8.3
8.372
8.412
8.388
8.38
8.372
8.336
8.312
8.252
8.264
8.276
8.26
8.184
8.22
8.228
8.188
8.188
8.2
8.216
8.196
8.164
8.184
8.232
8.236
8.192
8.16
8.2
8.124
8.056
8.232
8.568
9.068
9.568
10.132
10.684
11.092
11.112
10.828
9.792
8.744
8.176
7.968
8.072
8.2
8.24
8.304
8.332
8.348
8.316
8.284
8.268
8.288
8.316
8.276
8.268
8.292
8.32
8.292
8.26
8.304
8.328
8.316
8.292
8.296
8.368
8.336
8.292
8.288
8.332
8.34
8.312
8.332
8.368
8.372
8.34
8.348
8.376
8.412
8.384
8.396
8.432
8.452
8.428
8.42
8.464
8.504
8.496
8.508
8.528
8.592
8.572
8.584
8.636
8.696
8.728
8.76
8.792
8.872
8.908
8.92
8.96
9.056
9.092
9.128
9.156
9.216
9.268
9.22
9.224
9.22
9.184
9.116
9.056
8.952
8.884
8.788
8.656
8.608
8.584
8.484
8.42
8.372
8.352
8.328
8.252
8.256
8.276
8.276
8.236
8.212
8.228
8.24
8.18
8.196
8.208
8.244
8.216
8.196
8.208
8.224
8.22
8.196
8.212
8.216
8.244
8.204
8.2
8.196
8.2
8.208
8.2
8.224
8.252
8.208
8.18
8.192
8.208
8.204
8.188
8.2
8.236
8.204
8.172
8.168
8.216
8.188
8.172
8.152
8.216
8.192
8.168
8.148
8.2
8.184
8.16
8.16
8.188
8.208
8.172
8.152
8.164
8.2
8.172
8.132
8.164
8.196
8.172
8.132
8.152
8.204
8.172
8.144
8.148
8.2
8.172
8.152
8.144
8.16
8.152
8.152
8.144
8.164
8.204
8.164
8.136
8.156
8.184
8.172
8.168
8.18
8.204
8.156
8.136
8.16
8.184
8.168
8.136
8.16
8.188
8.176
8.156
8.152
8.176
8.168
8.144
8.152
8.156
8.192
8.156
8.156
8.204
8.24
8.224
8.248
8.28
8.352
8.328
8.316
8.284
8.276
8.252
8.204
8.208
8.248
8.224
8.18
8.136
8.156
8.164
8.136
8.136
8.168
8.18
8.12
8.116
8.132
8.18
8.144
8.12
8.132
8.036
8.048
8.264
8.664
9.236
9.82
10.42
10.924
11.1
11.028
10.392
9.16
8.34
8.012
7.916
8.024
8.144
8.22
8.252
8.252
8.244
8.26
8.24
8.224
8.236
8.276
8.252
8.228
8.256
8.284
8.26
8.248
8.244
8.268
8.28
8.272
8.268
8.3
8.32
8.288
8.284
8.316
8.332
8.296
8.28
8.344
8.368
8.34
8.344
8.336
8.396
8.372
8.376
8.404
8.436
8.444
8.424
8.444
8.484
8.524
8.516
8.532
8.588
8.624
8.644
8.656
8.724
8.776
8.792
8.82
8.912
8.992
9.028
9.04
9.088
9.16
9.18
9.216
9.248
9.312
9.308
9.248
9.18
9.132
9.04
8.92
8.824
8.756
8.68
8.592
8.484
8.464
8.432
8.332
8.28
8.288
8.288
8.22
8.184
8.192
8.216
8.192
8.176
8.164
8.22
8.184
8.148
8.144
8.184
8.168
8.152
8.168
8.204
8.2
8.164
8.14
8.16
8.204
8.18
8.16
8.18
8.208
8.188
8.16
8.168
8.2
8.168
8.152
8.188
8.196
8.188
8.16
8.16
8.16
8.176
8.136
8.16
8.164
8.192
8.144
8.128
8.14
8.172
8.144
8.144
8.168
8.176
8.14
8.128
8.132
8.168
8.152
8.124
8.16
8.168
8.156
8.128
8.128
8.168
8.156
8.144
8.152
8.164
8.18
8.148
8.116
8.136
8.18
8.14
8.132
8.152
8.164
8.136
8.136
8.128
8.16
8.144
8.144
8.148
8.164
8.152
8.116
8.12
8.172
8.184
8.196
8.232
8.248
8.296
8.316
8.332
8.336
8.32
8.252
8.224
8.212
8.22
8.2
8.148
8.144
8.156
8.14
8.112
8.112
8.132
8.136
8.104
8.1
8.128
8.136
8.116
8.088
8.128
8.112
8.02
7.952
8.12
8.444
8.904
9.476
10.112
10.704
11
11
10.74
9.708
8.532
7.936
7.784
7.872
7.976
8.024
8.168
8.268
8.268
8.192
8.188
8.212
8.236
8.192
8.196
8.228
8.256
8.224
8.2
8.212
8.228
8.22
8.216
8.22
8.264
8.252
8.236
8.26
8.256
8.26
8.232
8.26
8.296
8.304
8.284
8.28
8.312
8.336
8.296
8.324
8.364
8.372
8.352
8.34
8.4
8.432
8.416
8.416
8.476
8.508
8.528
8.548
8.572
8.624
8.652
8.696
8.744
8.804
8.86
8.884
8.928
9.012
9.064
9.1
9.124
9.188
9.236
9.228
9.204
9.208
9.172
9.076
8.968
8.884
8.8
8.712
8.596
8.516
8.472
8.4
8.344
8.304
8.256
8.256
8.2
8.156
8.164
8.192
8.148
8.108
8.16
8.152
8.12
8.112
8.136
8.152
8.136
8.152
8.136
8.16
8.164
8.124
8.132
8.16
8.14
8.136
8.136
8.152
8.164
8.116
8.128
8.152
8.164
8.148
8.128
8.168
8.16
8.12
8.132
8.132
8.144
8.144
8.128
8.136
8.14
8.14
8.116
8.12
8.136
8.148
8.096
8.116
8.136
8.132
8.104
8.104
8.112
8.14
8.104
8.108
8.108
8.136
8.112
8.088
8.12
8.144
8.12
8.12
8.112
8.136
8.088
8.092
8.092
8.104
8.096
8.104
8.088
8.12
8.112
8.104
8.088
8.108
8.148
8.088
8.1
8.108
8.128
8.108
8.104
8.116
8.116
8.108
8.092
8.112
8.12
8.172
8.184
8.208
8.264
8.316
8.316
8.284
8.28
8.224
8.164
8.152
8.16
8.168
8.144
8.1
8.1
8.092
8.08
8.06
8.088
8.112
8.08
8.056
8.072
8.096
8.088
8.056
8.072
8.104
8.032
7.928
8.004
8.308
8.748
9.276
9.916
10.524
10.964
11
10.856
9.96
8.736
7.964
7.712
7.716
7.904
7.992
8.084
8.2
8.208
8.164
8.152
8.156
8.204
8.188
8.172
8.164
8.176
8.176
8.172
8.192
8.208
8.2
8.2
8.192
8.216
8.216
8.192
8.22
8.236
8.252
8.228
8.22
8.24
8.248
8.252
8.268
8.284
8.308
8.304
8.272
8.292
8.34
8.344
8.348
8.38
8.392
8.404
8.416
8.432
8.468
8.488
8.512
8.548
8.588
8.628
8.656
8.692
8.76
8.82
8.86
8.904
8.96
9.032
9.072
9.08
9.112
9.18
9.204
9.2
9.188
9.152
9.116
9
8.876
8.816
8.732
8.616
8.536
8.468
8.436
8.36
8.276
8.252
8.244
8.22
8.176
8.18
8.168
8.148
8.128
8.124
8.148
8.132
8.12
8.108
8.14
8.152
8.132
8.112
8.128
8.152
8.144
8.112
8.144
8.152
8.136
8.124
8.128
8.16
8.144
8.116
8.14
8.144
8.148
8.128
8.128
8.172
8.172
8.144
8.12
8.148
8.148
8.116
8.12
8.144
8.14
8.132
8.128
8.144
8.14
8.092
8.096
8.136
8.152
8.132
8.132
8.124
8.12
8.136
8.104
8.128
8.136
8.156
8.104
8.108
8.136
8.124
8.116
8.096
8.136
8.128
8.128
8.104
8.14
8.124
8.124
8.12
8.136
8.152
8.152
8.12
8.128
8.128
8.14
8.132
8.12
8.156
8.14
8.124
8.12
8.148
8.156
8.112
8.104
8.14
8.156
8.144
8.112
8.104
8.136
8.124
8.104
8.14
8.192
8.216
8.2
8.224
8.288
8.328
8.324
8.264
8.252
8.248
8.184
8.156
8.196
8.184
8.128
8.128
8.124
8.14
8.108
8.084
8.084
8.1
8.108
8.116
8.1
8.128
8.1
8.1
8.096
8.08
7.972
7.968
8.216
8.596
9.208
9.792
10.372
10.936
11.028
10.964
10.272
9.044
8.136
7.82
7.708
7.816
7.988
8.092
8.18
8.24
8.224
8.208
8.184
8.18
8.2
8.192
8.196
8.2
8.22
8.204
8.224
8.212
8.232
8.248
8.244
8.228
8.252
8.26
8.228
8.216
8.24
8.268
8.276
8.24
8.264
8.296
8.296
8.28
8.272
8.296
8.3
8.312
8.312
8.352
8.376
8.368
8.364
8.4
8.444
8.448
8.476
8.508
8.528
8.548
8.556
8.624
8.676
8.68
8.724
8.76
8.844
8.888
8.892
8.98
9.052
9.072
9.096
9.156
9.204
9.192
9.168
9.148
9.12
9.072
8.968
8.836
8.768
8.712
8.588
8.504
8.436
8.412
8.328
8.268
8.264
8.228
8.188
8.16
8.168
8.184
8.148
8.116
8.124
8.14
8.148
8.12
8.112
8.144
8.152
8.088
8.12
8.124
8.148
8.116
8.108
8.136
8.14
8.128
8.096
8.124
8.128
8.116
8.08
8.116
8.116
8.108
8.096
8.1
8.092
8.108
8.092
8.068
8.092
8.1
8.072
8.036
8.06
8.08
8.06
8.04
8.056
8.072
8.064
8.02
8.04
8.044
8.052
8.024
8.04
8.036
8.04
8.012
8.004
8.04
8.028
8.04
8.024
8.048
8.072
8.008
8.016
8.04
8.02
8.012
8.004
8.036
8.04
8.044
8.012
8.024
8.028
8.036
7.996
8.024
8.048
8.048
8.036
8.076
8.112
8.12
8.144
8.196
8.232
8.244
8.164
8.116
8.132
8.1
8.084
8.052
8.06
8.04
8.024
7.992
8.008
8.012
8.004
8.008
7.988
8.012
8.012
7.988
7.996
8.004
7.996
7.988
7.96
7.92
7.84
7.96
8.244
8.788
9.472
10.096
10.636
10.904
10.968
10.544
9.348
8.28
7.844
7.692
7.676
7.808
7.928
8.044
8.084
8.092
8.092
8.092
8.084
8.076
8.084
8.112
8.092
8.068
8.108
8.124
8.108
8.08
8.116
8.112
8.1
8.092
8.108
8.136
8.124
8.14
8.128
8.152
8.16
8.124
8.14
8.18
8.196
8.172
8.168
8.216
8.204
8.212
8.224
8.244
8.268
8.276
8.296
8.332
8.348
8.36
8.368
8.384
8.444
8.476
8.5
8.54
8.596
8.616
8.664
8.688
8.796
8.832
8.864
8.892
8.952
9.012
9.016
9.048
9.084
9.096
9.048
9.004
8.924
8.84
8.716
8.632
8.524
8.492
8.392
8.312
8.248
8.228
8.172
8.116
8.084
8.096
8.088
8.036
8.016
8.036
8.048
8.016
7.996
8.036
8.052
8.024
8.008
8.02
8.016
8.028
7.984
8.016
8.028
8.04
8.024
8.008
8.036
8.02
8.004
8.008
8.036
8.032
8.008
7.988
8.02
8.016
8.004
7.984
8.012
8.028
8.008
7.988
8
7.988
7.996
8
7.988
8.032
7.984
7.984
7.98
8
7.988
7.96
7.992
8.008
8.024
7.972
7.976
7.984
7.988
7.98
7.968
7.968
8.012
7.992
7.952
7.984
7.988
7.98
7.944
8
8.016
8.008
7.944
7.972
7.98
7.996
7.98
7.98
8
8.008
7.976
7.988
7.972
8.012
8
7.996
8.02
8.016
7.984
7.984
7.988
8.024
8.02
7.984
8.028
8.024
8.004
7.992
7.988
8.012
8.016
7.992
8
8.004
8.004
7.996
7.96
7.996
8.012
7.984
8.016
8.052
8.104
8.088
8.116
8.144
8.212
8.208
8.188
8.144
8.112
8.088
8.056
8.04
8.04
8.04
8.024
8.016
8
8.02
7.996
7.968
7.988
8.024
8.008
7.98
8.032
8.028
7.992
7.984
7.988
7.944
7.868
7.98
8.296
8.792
9.38
9.976
10.548
10.892
10.928
10.612
9.544
8.396
7.844
7.644
7.676
7.852
7.956
8.064
8.088
8.12
8.1
8.08
8.064
8.072
8.084
8.084
8.084
8.104
8.112
8.108
8.08
8.092
8.096
8.124
8.124
8.108
8.128
8.14
8.124
8.144
8.148
8.18
8.16
8.172
8.18
8.192
8.18
8.18
8.204
8.228
8.26
8.204
8.232
8.268
8.268
8.288
8.284
8.332
8.348
8.356
8.356
8.408
8.452
8.452
8.484
8.556
8.58
8.596
8.652
8.736
8.772
8.8
8.856
8.912
8.988
9.004
9.024
9.056
9.108
9.096
9.068
9.08
9
8.936
8.848
8.74
8.664
8.564
8.488
8.42
8.376
8.304
8.236
8.184
8.172
8.152
8.128
8.092
8.104
8.08
8.08
8.052
8.064
8.076
8.06
8.064
8.06
8.084
8.056
8.052
8.072
8.072
8.084
8.084
8.068
8.08
8.084
8.072
8.052
8.084
8.044
8.076
8.068
8.064
8.084
8.076
8.032
8.064
8.064
8.072
8.04
8.048
8.06
8.052
8.036
8.04
8.032
8.064
8.02
8.028
8.04
8.032
8.032
8.004
8.036
8.044
8.044
8.032
8.024
8.048
8.032
8.02
8.024
8.032
8.032
8.02
8.032
8.052
8.04
8.024
8.024
8.028
8.036
8.02
8.02
8.044
8.04
8.02
8.016
8.032
8.048
8.04
7.996
8.016
8.048
8.024
8
8
8.028
8.04
8.036
8.024
8.036
8.04
7.992
8.008
8.028
8.048
8.024
8.016
8.028
8.008
8.016
8
8.032
8.044
8.04
8.012
8.02
8.044
8.024
8.024
8.024
8.04
8.068
8.036
8.028
8.044
8.036
8.02
8.024
8.044
8.04
8.044
8.016
8.048
8.068
8.02
8.02
8.06
8.056
8.06
8.024
8.048
8.048
8.036
8
8.044
8.04
8.036
8.028
8.044
8.036
8.052
8.036
8.036
8.052
8.072
8.04
8.04
8.048
8.04
8.024
8.024
8.068
8.076
8.084
8.096
8.16
8.192
8.196
8.2
8.256
8.268
8.2
8.172
8.14
8.156
8.12
8.104
8.08
8.1
8.08
8.048
8.056
8.064
8.072
8.024
8.052
8.08
8.06
8.064
8.032
8.052
8.068
8.012
7.932
7.924
8.144
8.46
9
9.596
10.216
10.744
10.924
10.892
10.424
9.224
8.2
7.788
7.704
7.784
7.912
8.012
8.124
8.2
8.156
8.128
8.14
8.152
8.124
8.136
8.132
8.164
8.148
8.14
8.128
8.16
8.192
8.144
8.152
8.196
8.184
8.156
8.16
8.172
8.196
8.192
8.196
8.224
8.24
8.22
8.192
8.236
8.26
8.252
8.256
8.272
8.28
8.284
8.28
8.304
8.344
8.352
8.336
8.38
8.392
8.432
8.432
8.444
8.512
8.552
8.552
8.6
8.644
8.7
8.732
8.76
8.82
8.888
8.932
8.956
9
9.064
9.096
9.088
9.12
9.128
9.132
9.056
8.972
8.928
8.844
8.74
8.62
8.568
8.528
8.408
8.344
8.308
8.252
8.228
8.164
8.136
8.148
8.092
8.076
8.076
8.108
8.088
8.076
8.068
8.076
8.088
8.064
8.064
8.108
8.088
8.06
8.04
8.096
8.088
8.076
8.064
8.064
8.092
8.084
8.056
8.072
8.092
8.08
8.048
8.076
8.08
8.068
8.036
8.052
8.076
8.08
8.032
8.044
8.08
8.06
8.02
8.004
8.06
8.06
8.044
8.02
8.06
8.06
8.028
8
8.032
8.044
8.044
8.004
8.028
8.036
8.032
8.012
8.008
8.04
8.024
7.996
8.02
8.028
8.02
7.992
8.02
8.016
8.012
7.992
7.976
8.016
8.036
8.024
7.992
7.996
8.028
7.98
7.976
8.008
8.012
8
8
7.992
7.996
8.02
7.976
7.98
7.988
8
7.996
7.96
8
8.016
8
7.976
7.98
8
8.016
7.988
7.976
8.008
7.996
7.952
7.984
8.008
8.008
7.968
7.98
8.02
7.992
7.964
7.964
7.992
8.024
7.976
7.972
8.008
8.008
7.964
7.98
8.004
8.02
8.004
7.968
7.996
8.016
8
7.968
7.992
8.02
7.988
7.988
7.988
8.004
8.004
7.972
7.98
8.008
8.008
8.004
7.984
8.032
8.02
8.012
7.968
8.016
8.036
8.016
8
8
8.024
8.012
7.976
7.996
8.016
8
7.996
7.984
7.996
7.98
7.984
7.996
8.04
8.08
8.084
8.088
8.148
8.196
8.188
8.18
8.168
8.12
8.088
8.064
8.044
8.06
8.036
7.984
7.988
8
7.988
7.98
7.968
7.992
7.984
7.964
7.96
7.988
8.02
7.992
7.976
7.984
7.896
7.852
7.968
8.348
8.836
9.46
10.036
10.588
10.868
10.884
10.5
9.396
8.316
7.784
7.624
7.672
7.832
7.924
8.012
8.092
8.096
8.084
8.06
8.024
8.088
8.08
8.068
8.056
8.076
8.088
8.092
8.084
8.076
8.116
8.092
8.084
8.1
8.116
8.124
8.104
8.108
8.128
8.156
8.12
8.14
8.152
8.176
8.144
8.156
8.192
8.2
8.188
8.172
8.232
8.252
8.244
8.24
8.272
8.312
8.332
8.328
8.356
8.384
8.408
8.42
8.468
8.512
8.548
8.576
8.624
8.676
8.724
8.756
8.788
8.876
8.924
8.94
8.988
9.052
9.092
9.08
9.08
9.056
9.056
9.008
8.936
8.856
8.764
8.668
8.552
8.46
8.428
8.36
8.288
8.216
8.184
8.144
8.088
8.06
8.068
8.056
8.036
8.024
8.032
8.04
8.012
7.992
7.992
8.044
8.028
8.016
8.028
8.036
8.008
7.996
8.016
8.044
8.036
8.02
8.028
8.036
8.04
8.016
8
8.008
8.04
8.02
7.996
8.036
8.036
8.024
8
8.008
8.028
8.032
8
8
8.02
7.988
7.976
7.992
8.004
8.028
7.988
7.984
8
8.004
7.992
7.972
7.984
7.992
7.98
7.956
7.988
8.012
7.976
7.96
7.988
7.996
8
7.972
7.976
8.008
7.976
7.972
7.98
7.988
7.992
7.968
7.984
8.004
8.008
7.976
7.976
7.992
8.028
7.988
7.996
8.004
8.008
7.988
7.976
7.988
8.004
8.008
7.972
7.972
8
8
7.988
7.96
8.012
8.012
8.004
7.984
8.012
8.024
7.992
7.992
8.008
8.016
7.984
7.984
8.008
8.032
7.996
7.988
7.988
8.016
8.012
7.98
7.996
7.996
7.996
7.976
8.008
8.028
8.028
8.008
7.972
8.028
7.98
8
8.004
7.992
8.028
7.996
7.964
8
8.02
8.012
8.004
8.016
8.032
8.016
7.972
7.992
8.016
8.024
8
8.012
8.012
8.024
8
7.98
8.004
8.012
7.996
8.02
8.048
8.092
8.104
8.096
8.136
8.192
8.228
8.216
8.176
8.144
8.116
8.068
8.064
8.088
8.052
8.04
8.008
8.044
8.024
8.012
7.992
8.02
8.044
8.04
8.008
8.036
8.052
8.024
8.008
8.004
7.94
7.868
8.024
8.38
8.92
9.52
10.104
10.672
10.94
10.96
10.52
9.368
8.316
7.816
7.64
7.7
7.872
7.976
8.092
8.136
8.148
8.132
8.104
8.092
8.116
8.132
8.12
8.116
8.128
8.136
8.144
8.112
8.12
8.144
8.136
8.14
8.152
8.16
8.168
8.152
8.144
8.184
8.2
8.18
8.172
8.212
8.22
8.204
8.204
8.228
8.232
8.252
8.264
8.264
8.288
8.288
8.308
8.312
8.36
8.38
8.376
8.384
8.444
8.46
8.48
8.5
8.572
8.608
8.644
8.668
8.744
8.784
8.816
8.844
8.912
9.008
9.024
9.056
9.088
9.132
9.172
9.164
9.144
9.136
9.092
9.004
8.876
8.812
8.72
8.624
8.528
8.496
8.424
8.332
8.272
8.24
8.192
8.164
8.124
8.136
8.128
8.108
8.08
8.096
8.072
8.068
8.048
8.076
8.116
8.084
8.088
8.08
8.1
8.092
8.088
8.072
8.092
8.096
8.088
8.08
8.084
8.108
8.084
8.068
8.084
8.128
8.096
8.084
8.096
8.108
8.076
8.088
8.08
8.096
8.096
8.092
8.056
8.088
8.072
8.072
8.06
8.1
8.104
8.056
8.064
8.072
8.08
8.056
8.064
8.068
8.064
8.076
8.048
8.068
8.076
8.068
8.056
8.048
8.084
8.064
8.024
8.048
8.04
8.048
8.076
8.044
8.06
8.064
8.056
8.02
8.052
8.068
8.048
8.048
8.08
8.088
8.064
8.032
8.044
8.064
8.048
8.024
8.052
8.064
8.056
8.06
8.04
8.068
8.068
8.052
8.032
8.06
8.068
8.04
8.024
8.052
8.072
8.048
8.044
8.056
8.064
8.032
8.044
8.036
8.064
8.048
8.04
8.044
8.056
8.052
8.028
8.048
8.068
8.044
8.048
8.044
8.06
8.064
8.028
8.036
8.076
8.08
8.032
8.048
8.06
8.088
8.056
8.028
8.064
8.076
8.072
8.064
8.044
8.076
8.036
8.044
8.036
8.06
8.088
8.104
8.12
8.172
8.164
8.2
8.236
8.256
8.276
8.216
8.156
8.152
8.116
8.112
8.072
8.096
8.104
8.084
8.04
8.06
8.072
8.064
8.06
8.052
8.08
8.06
8.064
8.032
8.072
8.076
8.008
7.944
7.948
8.152
8.492
9.06
9.72
10.356
10.868
11.004
10.996
10.404
9.152
8.176
7.82
7.716
7.784
7.908
8.028
8.128
8.2
8.164
8.132
8.168
8.144
8.148
8.14
8.168
8.188
8.156
8.164
8.18
8.196
8.156
8.176
8.176
8.2
8.172
8.176
8.192
8.22
8.228
8.196
8.212
8.252
8.256
8.232
8.216
8.264
8.264
8.26
8.256
8.308
8.332
8.304
8.316
8.352
8.36
8.372
8.384
8.392
8.424
8.436
8.468
8.488
8.548
8.572
8.608
8.656
8.688
8.732
8.764
8.832
8.892
8.928
8.98
9.016
9.092
9.14
9.148
9.164
9.208
9.216
9.192
9.128
9.084
9.036
8.924
8.784
8.728
8.672
8.552
8.456
8.404
8.356
8.292
8.224
8.184
8.176
8.16
8.096
8.104
8.084
8.084
8.076
7.988
8.068
8.08
8.084
8.08
8.084
8.088
8.072
8.06
8.048
8.076
8.064
8.084
8.048
8.076
8.076
8.044
8.048
8.076
8.084
8.068
8.04
8.056
8.076
8.068
8.044
8.056
8.072
8.064
8.044
8.052
8.056
8.052
8.032
8.02
8.06
8.032
8.016
8.008
8.036
8.04
7.984
7.996
8.036
8.036
7.988
7.988
8
8.04
8.008
7.992
8.016
8.016
8.008
7.984
8.008
7.992
8.008
7.98
8.004
8.028
7.992
7.984
7.976
8.004
7.976
7.964
7.968
7.992
8.008
7.996
7.984
7.98
8.016
7.976
7.992
8.004
8.024
7.988
7.988
7.996
8
7.984
7.976
8.008
8.024
7.984
7.984
7.992
7.976
7.992
7.976
7.992
8
8.008
7.996
7.988
7.988
8.008
7.984
7.988
7.992
7.992
7.972
7.984
8.008
8.04
8.096
8.076
8.1
8.152
8.204
8.228
8.188
8.136
8.124
8.108
8.068
8.076
8.064
8.02
7.992
8.008
8.016
7.992
7.992
8.016
8.016
8.008
8
8.004
8.016
8.008
8.012
8.012
8.004
7.872
7.832
7.98
8.376
8.944
9.592
10.208
10.784
11.008
10.992
10.468
9.248
8.228
7.82
7.652
7.712
7.844
7.928
8.032
8.116
8.12
8.104
8.088
8.08
8.108
8.1
8.064
8.072
8.112
8.104
8.088
8.096
8.132
8.132
8.112
8.104
8.132
8.144
8.14
8.156
8.184
8.168
8.14
8.152
8.152
8.18
8.204
8.212
8.196
8.232
8.232
8.216
8.236
8.276
8.296
8.288
8.292
8.332
8.348
8.312
8.344
8.392
8.448
8.452
8.452
8.52
8.56
8.592
8.62
8.676
8.768
8.784
8.804
8.848
8.948
8.98
8.992
9.064
9.128
9.164
9.144
9.172
9.132
9.12
9.012
8.936
8.868
8.772
8.668
8.576
8.496
8.42
8.32
8.272
8.24
8.192
8.16
8.128
8.104
8.108
8.068
8.04
8.056
8.064
8.056
8.056
8.036
8.052
8.076
8.048
8.036
8.072
8.088
8.068
8.032
8.044
8.052
8.044
8.044
8.052
8.092
8.068
8.04
8.052
8.06
8.044
8.032
8.048
8.064
8.06
8.012
8.024
8.028
8.06
8.028
8.02
8.048
8.068
8.056
8.008
8.032
8.024
8.032
8.016
8.032
8.032
8.024
8.016
8.02
8.028
8.036
8
8.024
8.048
8.052
8.012
8.02
8.02
8.032
8
7.996
8.028
8.032
8.016
8
8.008
8.036
8.012
8.008
8.016
8.032
8.024
7.972
8.016
8.024
8.004
7.98
8.012
8.048
8.032
7.988
7.996
8.02
8.008
8.004
8.028
8.024
8.032
8.012
8.008
8.02
8.032
8.004
8.028
8.016
8.032
8.02
7.992
8.008
8.028
8.024
8.024
8.008
8.016
8.008
8.016
8
8.052
8.108
8.104
8.104
8.176
8.232
8.216
8.188
8.144
8.144
8.104
8.076
8.084
8.084
8.052
8.02
7.996
8.016
8.024
7.98
8.004
8.012
8.008
7.992
7.996
8.024
8.024
8.024
8.02
8.012
7.912
7.872
8.032
8.368
8.916
9.556
10.124
10.736
10.98
10.988
10.552
9.408
8.312
7.852
7.66
7.712
7.86
7.96
8.072
8.12
8.144
8.132
8.1
8.108
8.116
8.108
8.104
8.096
8.116
8.14
8.148
8.136
8.148
8.156
8.128
8.136
8.152
8.152
8.18
8.164
8.168
8.172
8.168
8.16
8.168
8.204
8.228
8.216
8.232
8.236
8.272
8.244
8.252
8.276
8.308
8.32
8.312
8.324
8.364
8.364
8.404
8.388
8.44
8.492
8.464
8.516
8.572
8.612
8.636
8.664
8.724
8.804
8.832
8.876
8.928
9
9.016
9.072
9.12
9.148
9.168
9.136
9.148
9.088
9.028
8.928
8.836
8.784
8.676
8.54
8.468
8.408
8.36
8.268
8.212
8.204
8.16
8.108
8.072
8.088
8.056
8.032
8.032
8.044
8.044
8.02
8.012
8.04
8.044
8.036
8.008
8.036
8.056
8.044
7.984
8.024
8.032
8.044
8.004
8.028
8.044
8.052
8.012
8.024
8.036
8.028
8.008
8.012
8.028
8.032
8.008
8.008
8
7.996
8.004
8
7.988
8.02
7.988
7.972
7.976
7.992
7.976
7.976
7.984
7.992
7.984
7.968
7.972
7.976
7.972
7.992
7.976
7.976
7.98
7.972
7.956
7.96
7.98
7.996
7.972
7.964
7.992
7.976
7.932
7.94
7.984
7.952
7.944
7.964
7.98
7.988
7.988
7.952
7.968
7.98
7.98
7.956
7.96
7.988
7.952
7.948
7.968
7.972
7.96
7.948
7.964
7.972
7.956
7.936
7.952
7.96
7.988
7.964
7.94
7.964
7.964
7.952
7.936
7.976
7.996
7.968
7.94
7.968
7.972
7.956
7.952
7.952
7.956
7.964
7.968
7.96
7.968
7.964
7.936
7.94
7.972
7.976
7.96
7.96
7.968
7.968
7.94
7.928
7.952
7.988
7.972
7.984
8.056
8.064
8.068
8.088
8.132
8.176
8.124
8.064
8.06
8.024
7.996
7.996
7.996
7.984
7.944
7.932
7.944
7.94
7.956
7.952
7.932
7.932
7.952
7.94
7.924
7.94
7.944
7.924
7.876
7.812
7.872
8.112
8.508
9.124
9.764
10.36
10.8
10.892
10.828
10.008
8.704
7.892
7.632
7.592
7.676
7.796
7.932
8.056
8.052
7.988
8.012
8.028
8
7.992
8.016
8.048
8.02
7.992
8.012
8.044
8.028
8.02
8.024
8.048
8.056
8.044
8.04
8.08
8.064
8.064
8.08
8.1
8.112
8.088
8.096
8.116
8.1
8.116
8.12
8.148
8.152
8.168
8.152
8.168
8.204
8.212
8.196
8.26
8.268
8.304
8.3
8.324
8.376
8.412
8.436
8.468
8.52
8.576
8.6
8.624
8.7
8.756
8.788
8.828
8.892
8.952
8.988
8.996
9.036
9.052
9.076
9.04
8.976
8.944
8.864
8.74
8.628
8.564
8.484
8.388
8.296
8.26
8.208
8.12
8.072
8.064
8.036
8.024
7.984
7.992
7.976
7.968
7.944
7.948
7.944
7.964
7.936
7.952
7.956
7.952
7.952
7.94
7.904
7.98
7.948
7.952
7.956
7.968
7.952
7.932
7.952
7.952
7.952
7.94
7.924
7.952
7.94
7.928
7.916
7.98
7.948
7.92
7.932
7.944
7.936
7.916
7.916
7.944
7.944
7.924
7.904
7.92
7.948
7.924
7.92
7.924
7.94
7.92
7.9
7.912
7.928
7.916
7.896
7.916
7.936
7.92
7.884
7.892
7.912
7.92
7.9
7.892
7.924
7.94
7.912
7.896
7.9
7.924
7.888
7.88
7.912
7.924
7.908
7.884
7.908
7.904
7.908
7.876
7.904
7.924
7.936
7.908
7.888
7.924
7.9
7.896
7.9
7.916
7.932
7.892
7.884
7.888
7.92
7.896
7.896
7.916
7.932
7.916
7.884
7.884
7.912
7.896
7.876
7.916
7.928
7.924
7.908
7.888
7.928
7.912
7.9
7.9
7.928
7.928
7.908
7.896
7.92
7.928
7.904
7.904
7.916
7.932
7.904
7.888
7.916
7.92
7.932
7.904
7.904
7.944
7.944
7.904
7.904
7.94
7.924
7.924
7.924
7.932
7.924
7.912
7.92
7.936
7.992
8.016
8.012
8.04
8.112
8.116
8.1
8.08
8.056
8.028
7.992
7.988
7.988
7.988
7.908
7.908
7.936
7.928
7.928
7.896
7.94
7.924
7.908
7.908
7.948
7.952
7.944
7.936
7.932
7.84
7.776
7.884
8.228
8.732
9.34
9.952
10.532
10.896
10.912
10.588
9.54
8.388
7.82
7.592
7.608
7.756
7.86
7.968
8.04
8.036
8.048
8.032
8.004
8.032
8.04
8.012
8.024
8.032
8.052
8.04
8.032
8.028
8.056
8.072
8.064
8.056
8.096
8.104
8.06
8.056
8.092
8.12
8.072
8.068
8.112
8.148
8.108
8.104
8.16
8.144
8.156
8.16
8.18
8.224
8.232
8.228
8.244
8.256
8.28
8.276
8.316
8.356
8.392
8.404
8.416
8.484
8.516
8.524
8.552
8.648
8.716
8.736
8.768
8.82
8.9
8.92
8.968
9.032
9.084
9.108
9.076
9.084
9.096
9.056
8.948
8.892
8.84
8.74
8.636
8.528
8.48
8.376
8.32
8.232
8.208
8.208
8.124
8.076
8.088
8.088
8.048
8.02
8.024
8.036
8.028
7.992
7.98
8.008
8.032
8.008
8.012
8.052
8.008
8.028
8.012
8.024
8.036
8.004
8.016
8.04
8.052
8.016
8
8.004
8.04
8.004
8.02
8.032
8.016
8.04
7.992
8.004
8.028
8.02
8.012
8.004
8.036
8.028
8.012
7.996
8.02
8.028
8.008
7.988
8.024
8.028
7.992
7.988
8.008
8
8.004
7.976
7.996
8.016
8.012
7.968
7.972
7.996
8.004
7.984
7.996
8.016
7.996
7.98
7.944
7.996
8
7.992
7.956
7.996
8.012
7.972
7.952
7.976
8.008
8.004
7.976
7.988
8.012
8
7.972
7.98
8
8
8
7.976
8.008
8.012
7.972
7.968
8.008
8.016
8
7.968
7.996
8.016
7.968
7.964
7.992
8.004
8
7.972
7.996
7.996
8.004
7.976
7.976
8.02
8.02
8.016
7.988
8
8
7.996
7.976
8.012
8.012
8.02
8.004
8.076
8.124
8.112
8.108
8.18
8.232
8.212
8.16
8.136
8.136
8.112
8.052
8.056
8.06
8.04
8.008
8
8.012
8.004
7.98
7.984
8.028
8.028
7.988
7.972
8.008
8.032
8.02
7.984
7.928
7.86
7.928
8.196
8.636
9.328
9.94
10.54
10.928
11
10.82
9.84
8.592
7.94
7.724
7.656
7.768
7.88
8.032
8.104
8.108
8.104
8.108
8.088
8.064
8.096
8.104
8.08
8.092
8.084
8.112
8.104
8.088
8.12
8.144
8.116
8.112
8.124
8.136
8.152
8.124
8.116
8.176
8.184
8.168
8.164
8.192
8.2
8.176
8.184
8.228
8.232
8.252
8.22
8.252
8.28
8.296
8.284
8.308
8.368
8.38
8.372
8.388
8.432
8.456
8.488
8.524
8.564
8.632
8.64
8.672
8.74
8.8
8.844
8.864
8.948
9.008
9.036
9.08
9.128
9.136
9.156
9.156
9.128
9.104
9.02
8.912
8.816
8.756
8.66
8.544
8.472
8.424
8.36
8.252
8.2
8.196
8.176
8.128
8.096
8.1
8.096
8.048
8.044
8.04
8.064
8.056
8.048
8.04
8.06
8.052
8.024
8.008
8.032
8.072
8.048
8.048
8.044
8.056
8.044
8.036
8.052
8.076
8.052
8.044
8.052
8.072
8.068
8.032
8.032
8.06
8.068
8.052
8.044
8.06
8.064
8.016
8.028
8.028
8.056
8.048
8.016
8.04
8.036
8.02
8.008
8.028
8.06
8.024
7.996
8.032
8.028
8.036
8.008
8.016
8.048
8.04
8.004
8.02
8.028
8.036
8.016
7.992
8.04
8.036
8.012
7.992
8.02
8.06
8.012
8.024
8.032
8.04
8.028
7.996
8.004
7.996
8.008
8.012
8.008
8.04
8.032
7.984
8
8.02
7.984
7.968
7.992
7.992
8.024
8.012
7.988
8.02
8.016
7.992
7.98
8.012
8.04
8.012
7.98
8
8.016
8.024
7.972
8.052
8.112
8.128
8.092
8.136
8.2
8.212
8.144
8.12
8.124
8.104
8.056
8.04
8.036
8.044
8.008
7.98
8.008
8.024
8
7.976
8
7.992
7.984
7.972
7.996
8.016
8.008
7.992
7.952
7.888
7.872
8.048
8.424
9.044
9.68
10.288
10.804
11.02
11
10.324
9.064
8.136
7.78
7.632
7.704
7.84
7.952
8.068
8.112
8.104
8.108
8.088
8.064
8.068
8.096
8.108
8.084
8.072
8.116
8.112
8.1
8.076
8.12
8.128
8.136
8.124
8.144
8.156
8.148
8.132
8.148
8.172
8.164
8.164
8.152
8.18
8.192
8.18
8.18
8.228
8.24
8.216
8.248
8.276
8.292
8.28
8.28
8.324
8.344
8.368
8.372
8.424
8.452
8.464
8.484
8.54
8.592
8.628
8.64
8.724
8.792
8.832
8.868
8.908
8.984
9.016
9.06
9.096
9.156
9.152
9.14
9.096
9.076
9.012
8.932
8.836
8.724
8.664
8.536
8.452
8.38
8.332
8.264
8.204
8.188
8.132
8.124
8.064
8.072
8.06
8.068
8.04
8.016
8.064
8.016
8.02
7.992
8.032
8.056
8.032
8.008
8.028
8.044
8.024
8.008
8.024
8.04
8.028
8.016
8.008
8.008
8.024
7.988
8.012
8.04
8.036
8.008
7.98
8.02
8.012
7.992
7.988
8.028
8.028
8
8
7.984
8.024
7.968
7.972
8
8.012
7.976
7.96
7.968
7.992
7.992
7.972
7.964
8.004
7.976
7.968
7.964
7.976
7.992
7.948
7.964
7.996
8.012
7.96
7.944
7.964
8.008
7.972
7.964
7.94
7.992
7.98
7.956
7.928
7.988
7.972
7.948
7.94
7.972
7.96
7.964
7.936
7.988
7.976
7.956
7.932
7.984
7.988
7.96
7.948
7.96
7.968
7.956
7.944
7.96
7.988
7.968
7.956
7.936
7.96
7.972
7.944
7.928
7.968
7.956
7.948
7.932
8.032
8.052
8.036
8.028
8.144
8.18
8.164
8.064
8.072
8.076
8.024
7.968
8.004
7.988
7.96
7.932
7.936
7.96
7.964
7.936
7.928
7.98
7.956
7.928
7.904
7.96
7.968
7.944
7.916
7.884
7.824
7.864
8.128
8.6
9.26
9.864
10.444
10.908
10.936
10.768
9.8
8.552
7.872
7.64
7.58
7.68
7.856
7.968
8.024
8.044
8.052
8.068
8.048
7.992
8.04
8.048
8.048
8
8.04
8.064
8.048
8.012
8.048
8.088
8.056
8.032
8.02
8.104
8.112
8.068
8.092
8.136
8.108
8.096
8.096
8.152
8.16
8.128
8.116
8.18
8.204
8.184
8.148
8.228
8.256
8.236
8.22
8.268
8.312
8.328
8.288
8.348
8.42
8.44
8.416
8.476
8.544
8.58
8.564
8.604
8.724
8.772
8.784
8.824
8.916
8.952
8.984
8.988
9.104
9.112
9.108
9.06
9.076
9.028
8.932
8.796
8.756
8.712
8.584
8.448
8.384
8.34
8.284
8.192
8.148
8.164
8.112
8.036
8.024
8.06
8.028
7.968
7.968
8.016
8.016
7.984
7.94
7.976
8.008
7.972
7.944
8.004
8.036
7.976
7.98
7.988
8.004
8.012
7.956
7.972
8.036
8.028
7.968
7.96
7.992
8.008
7.948
7.976
8
8.004
7.96
7.932
7.976
8.02
7.984
7.952
7.988
8.012
7.988
7.92
7.956
7.984
7.988
7.948
7.952
7.996
8
7.948
7.932
7.988
7.98
7.936
7.956
7.984
7.992
7.952
7.94
7.952
7.972
7.944
7.948
7.964
8.008
7.956
7.944
7.944
7.984
7.964
7.944
7.96
8
7.996
7.936
7.944
7.984
7.996
7.956
7.952
7.988
7.992
7.928
7.928
7.98
8.004
7.952
7.952
7.972
8
7.952
7.916
7.932
7.976
7.944
7.932
7.948
7.976
7.96
7.932
7.932
7.972
7.988
7.94
7.944
7.972
7.984
7.928
7.944
7.948
7.992
7.936
7.948
7.96
7.98
7.936
7.924
7.928
7.984
7.952
7.956
8.012
8.076
8.056
8.056
8.1
8.172
8.18
8.104
8.056
8.064
8.028
7.976
7.992
7.996
8
7.944
7.936
7.96
7.968
7.94
7.936
7.912
7.98
7.936
7.928
7.924
7.976
7.96
7.92
7.856
7.812
7.916
8.18
8.656
9.312
9.912
10.5
10.88
10.94
10.752
9.752
8.5
7.836
7.644
7.612
7.712
7.864
8.012
8.076
8.064
8.028
8.072
8.048
8.028
8.02
8.052
8.048
8.024
8.032
8.052
8.072
8.048
8.044
8.06
8.088
8.072
8.048
8.06
8.092
8.08
8.072
8.084
8.124
8.096
8.096
8.116
8.156
8.14
8.152
8.152
8.192
8.192
8.192
8.192
8.216
8.24
8.236
8.252
8.288
8.328
8.332
8.328
8.372
8.404
8.428
8.456
8.512
8.572
8.588
8.6
8.672
8.768
8.76
8.832
8.872
8.96
8.988
9.028
9.02
9.08
9.088
9.092
9.044
9.024
8.96
8.86
8.764
8.68
8.6
8.504
8.424
8.36
8.316
8.236
8.152
8.12
8.128
8.072
8.056
8.004
8.04
8.024
7.996
7.98
7.992
8
7.984
7.984
7.996
8.02
7.98
7.968
7.988
8.012
8
8.004
7.988
8.024
8.028
7.984
7.988
8.004
8.008
7.984
7.984
8.016
8.004
7.976
7.968
8
8.024
7.988
7.988
8.008
8
7.964
7.964
7.972
8.008
7.988
7.98
7.956
8.004
7.968
7.96
7.964
7.992
7.98
7.976
7.964
8
7.976
7.948
7.96
7.996
7.996
7.98
7.948
7.956
7.976
7.944
7.948
7.956
7.976
7.972
7.956
7.944
7.992
7.948
7.94
7.944
8
7.956
7.964
7.94
7.976
7.948
7.944
7.948
7.98
7.988
7.956
7.948
7.94
7.992
7.948
7.932
7.968
7.972
7.976
7.952
7.948
7.968
7.956
7.932
7.948
7.992
7.964
7.948
7.944
7.956
7.964
7.94
7.924
7.976
7.972
7.928
7.948
7.964
7.972
7.936
7.948
7.964
7.96
7.956
7.96
7.968
7.992
8.004
8.024
8.056
8.088
8.092
8.152
8.14
8.156
8.112
8.076
8.036
8.052
8.032
8.004
7.976
7.964
7.984
7.94
7.948
7.972
7.996
7.932
7.928
7.936
7.976
7.96
7.936
7.952
7.992
7.916
7.824
7.788
8.02
8.368
8.928
9.592
10.24
10.792
10.928
10.912
10.344
9.132
8.104
7.712
7.588
7.668
7.78
7.892
8.008
8.104
8.052
8.016
8.028
8.068
8.048
8.032
8.016
8.064
8.048
8.056
8.04
8.06
8.08
8.064
8.064
8.08
8.088
8.072
8.064
8.096
8.12
8.1
8.104
8.104
8.152
8.148
8.128
8.128
8.164
8.156
8.144
8.156
8.18
8.208
8.212
8.224
8.248
8.264
8.252
8.268
8.288
8.364
8.356
8.4
8.428
8.456
8.46
8.488
8.568
8.636
8.676
8.68
8.752
8.8
8.868
8.872
8.94
9.012
9.072
9.056
9.1
9.088
9.1
9.032
8.964
8.908
8.852
8.732
8.636
8.548
8.492
8.372
8.296
8.236
8.196
8.144
8.096
8.068
8.06
8.04
8.02
8.004
8.004
8
7.968
7.984
7.972
7.992
7.972
7.944
7.972
8.008
7.98
7.964
7.96
8.004
7.948
7.956
7.98
8
7.96
7.964
7.944
7.988
7.984
7.964
7.96
7.984
7.984
7.972
7.944
7.976
7.98
7.952
7.94
7.952
7.984
7.932
7.928
7.948
7.948
7.948
7.94
7.94
7.972
7.964
7.924
7.944
7.956
7.96
7.928
7.916
7.96
7.952
7.928
7.916
7.92
7.932
7.912
7.916
7.928
7.96
7.904
7.92
7.964
7.936
7.908
7.92
7.916
7.952
7.924
7.9
7.88
7.94
7.944
7.912
7.932
7.94
7.94
7.916
7.908
7.904
7.944
7.916
7.908
7.896
7.936
7.924
7.94
8
8.008
8.024
8.06
8.124
8.16
8.12
8.064
8.024
8.032
8.012
7.96
7.96
7.952
7.94
7.912
7.9
7.92
7.956
7.916
7.92
7.928
7.92
7.916
7.912
7.92
7.944
7.932
7.9
7.808
7.788
7.896
8.16
8.636
9.332
9.992
10.548
10.936
10.972
10.66
9.568
8.36
7.82
7.632
7.58
7.72
7.828
7.976
8.008
8.032
8.016
8.048
8.024
7.996
8.016
8.052
8.04
8.016
8.024
8.064
8.068
8.036
8.044
8.06
8.076
8.052
8.056
8.096
8.112
8.084
8.076
8.104
8.132
8.088
8.088
8.124
8.144
8.14
8.124
8.132
8.18
8.176
8.16
8.192
8.252
8.252
8.24
8.244
8.28
8.316
8.316
8.336
8.396
8.448
8.444
8.472
8.512
8.572
8.548
8.64
8.696
8.78
8.792
8.856
8.888
8.96
9.016
9.024
9.052
9.104
9.108
9.06
9.012
8.972
8.9
8.784
8.688
8.616
8.548
8.428
8.344
8.296
8.26
8.176
8.128
8.112
8.112
8.052
8.036
8.012
8.024
8.016
8.004
8.012
8.02
8.008
8
8
8.008
8.016
8
8
8.036
8.056
8.012
7.976
8.016
8.036
8.024
8
8.024
8.032
8.008
7.984
8
8.02
8.024
8.004
8.008
8.016
8.024
8
7.984
8.032
8.036
8.012
8.02
8.024
8.044
8.004
7.992
8.004
8.044
7.996
8.016
8.02
8.044
8.008
7.984
7.996
8.028
8
8.008
8.008
8.012
8.008
7.984
7.984
8
8.024
8
7.984
7.992
8.028
7.964
7.988
7.996
8.028
7.984
7.972
8
8.024
8.004
7.988
7.984
8.012
8.008
7.992
7.976
7.984
8
7.984
7.952
7.992
7.992
7.996
7.964
7.992
8.024
7.992
7.984
7.972
8.008
7.984
7.984
7.996
8.052
8.072
8.068
8.08
8.132
8.204
8.176
8.136
8.116
8.1
8.056
8.036
8.056
8.068
8.024
7.992
8
8.012
7.984
7.976
7.988
8.012
7.98
7.98
7.972
8.004
8.008
7.972
7.992
7.972
7.9
7.848
8.012
8.38
8.916
9.508
10.164
10.736
11.028
10.996
10.524
9.344
8.276
7.768
7.608
7.7
7.864
7.928
8.036
8.124
8.104
8.084
8.052
8.092
8.108
8.096
8.064
8.064
8.1
8.12
8.096
8.072
8.104
8.136
8.112
8.108
8.124
8.152
8.124
8.136
8.148
8.188
8.156
8.152
8.164
8.176
8.184
8.192
8.2
8.24
8.244
8.24
8.22
8.26
8.292
8.272
8.288
8.328
8.368
8.36
8.356
8.408
8.44
8.436
8.484
8.516
8.564
8.588
8.62
8.676
8.744
8.772
8.816
8.884
8.944
9
9.004
9.036
9.12
9.152
9.14
9.14
9.128
9.108
9.012
8.908
8.836
8.784
8.656
8.556
8.492
8.424
8.336
8.268
8.224
8.196
8.156
8.112
8.1
8.108
8.08
8.06
8.056
8.06
8.08
8.06
8.048
8.064
8.052
8.048
8.052
8.068
8.088
8.064
8.06
8.064
8.084
8.048
8.036
8.06
8.076
8.084
8.06
8.056
8.08
8.076
8.052
8.036
8.064
8.084
8.04
8.044
8.064
8.084
8.024
8.012
8.04
8.08
8.048
8.024
8.056
8.064
8.044
8.008
8.028
8.068
8.044
8.012
8.02
8.04
8.052
8.032
8.004
8.056
8.072
8.028
8.016
8.036
8.044
8.024
8.008
8.052
8.052
8.024
8.012
8.012
8.048
8.02
8.004
8.008
8.036
8.036
8.012
8.004
8.028
8.04
8.008
8.012
8.048
8.056
8.004
8.012
8.032
8.048
8.028
8.012
8.044
8.056
8.032
8.016
8.008
8.052
8.04
8.012
8.056
8.036
8.076
8.016
7.988
8.036
8.06
8.04
8.072
8.16
8.136
8.088
8.156
8.232
8.228
8.204
8.156
8.132
8.148
8.072
8.072
8.072
8.06
8.052
8.02
8.028
8.036
8.036
8.016
8.016
8.028
8.016
7.98
8.008
8.032
8.032
8.008
7.988
7.936
7.884
7.98
8.32
8.828
9.5
10.08
10.66
10.972
11.04
10.692
9.54
8.396
7.852
7.668
7.656
7.812
7.948
8.056
8.144
8.128
8.112
8.14
8.092
8.084
8.112
8.14
8.112
8.108
8.132
8.156
8.136
8.116
8.132
8.144
8.148
8.14
8.148
8.156
8.148
8.136
8.156
8.164
8.204
8.192
8.18
8.208
8.236
8.208
8.184
8.244
8.248
8.236
8.26
8.284
8.316
8.312
8.296
8.332
8.372
8.4
8.38
8.4
8.46
8.484
8.492
8.528
8.592
8.636
8.664
8.7
8.792
8.832
8.836
8.892
8.976
9.04
9.06
9.08
9.128
9.176
9.14
9.112
9.108
9.068
8.972
8.856
8.772
8.704
8.596
8.484
8.42
8.4
8.36
8.24
8.216
8.196
8.18
8.116
8.112
8.104
8.128
8.08
8.052
8.068
8.084
8.06
8.06
8.092
8.104
8.096
8.06
8.076
8.072
8.088
8.08
8.048
8.084
8.136
8.06
8.08
8.076
8.1
8.072
8.044
8.096
8.1
8.052
8.052
8.076
8.072
8.064
8.04
8.068
8.076
8.064
8.056
8.044
8.052
8.056
8.024
8.032
8.06
8.04
8.032
8.028
8.032
8.056
8.016
8.024
8.044
8.064
8.028
8
8.016
8.04
8.016
8.004
8.028
8.032
8.024
8.008
7.996
8.024
8.016
8
8.012
8.024
8.036
7.996
7.988
8.02
8.028
8.004
7.996
8.02
8.048
7.992
7.988
7.988
8.028
8.016
7.98
7.992
8.036
8
7.988
7.996
8.016
8.008
7.996
8
8.028
8.028
8.004
7.988
8.004
8.02
7.992
7.976
8.032
8.064
8.072
8.096
8.084
8.136
8.188
8.208
8.192
8.168
8.144
8.1
8.08
8.072
8.104
8.028
8.02
8.024
8.02
7.984
7.98
8.012
8.032
7.996
7.992
8.012
8.024
8
7.98
8
8.024
7.956
7.856
7.92
8.216
8.64
9.244
9.912
10.544
11
11.004
10.844
9.952
8.692
7.916
7.66
7.668
7.784
7.888
7.976
8.088
8.124
8.1
8.08
8.064
8.1
8.096
8.068
8.076
8.096
8.104
8.084
8.096
8.124
8.124
8.124
8.1
8.136
8.148
8.112
8.112
8.128
8.18
8.14
8.132
8.172
8.184
8.152
8.136
8.18
8.212
8.188
8.172
8.2
8.244
8.244
8.236
8.256
8.28
8.328
8.284
8.316
8.332
8.388
8.384
8.408
8.472
8.528
8.532
8.552
8.612
8.668
8.688
8.72
8.8
8.88
8.916
8.912
8.992
9.056
9.088
9.088
9.088
9.108
9.072
8.996
8.932
8.864
8.768
8.656
8.58
8.516
8.456
8.34
8.28
8.232
8.184
8.164
8.116
8.1
8.1
8.072
8.032
8.028
8.028
8.028
8.008
7.996
8.024
8.044
7.996
8
8.028
8.048
8.004
7.996
8.024
8.052
7.996
7.976
8.008
8.032
8.008
7.992
8.012
8.016
8.012
7.984
8.008
8.02
8.008
7.984
8.004
8.024
8.028
8.016
7.988
8.016
8.044
7.988
7.996
8.02
8.02
8.004
7.988
7.996
8.008
8.004
8
8.008
8.012
8.012
7.972
7.984
8.012
8.004
7.984
7.98
8.008
8.004
7.992
7.976
8.012
8.008
8
7.996
8.004
7.996
8
8
7.988
8
7.992
7.952
7.992
8.02
8.008
8.04
8.092
8.112
8.14
8.168
8.18
8.184
8.164
8.104
8.06
8.064
8.08
8.032
7.996
7.972
8.008
7.976
7.952
7.972
7.992
8
7.944
7.988
7.968
7.976
7.952
7.956
7.992
7.988
7.932
7.844
7.828
7.984
8.304
8.86
9.632
10.256
10.804
10.992
11.008
10.456
9.192
8.176
7.828
7.692
7.708
7.792
7.908
8.036
8.072
8.06
8.064
8.072
8.056
8.052
8.048
8.08
8.068
8.056
8.056
8.084
8.116
8.092
8.052
8.1
8.116
8.096
8.104
8.132
8.14
8.14
8.108
8.14
8.164
8.168
8.144
8.16
8.192
8.216
8.172
8.192
8.232
8.224
8.228
8.236
8.28
8.312
8.276
8.308
8.332
8.352
8.372
8.364
8.428
8.472
8.472
8.516
8.568
8.62
8.668
8.684
8.736
8.816
8.876
8.888
8.952
9.012
9.036
9.08
9.064
9.112
9.12
9.044
8.964
8.9
8.84
8.728
8.632
8.56
8.5
8.404
8.304
8.272
8.228
8.196
8.144
8.112
8.12
8.096
8.044
8.04
8.048
8.068
8.016
8.028
8.056
8.056
8.008
8.012
8.032
8.056
8.044
8.036
8.036
8.06
8.056
8.02
8.02
8.056
8.068
8.032
8.056
8.072
8.06
8.052
8.028
8.044
8.068
8.04
8.044
8.052
8.056
8.032
8.004
8.052
8.048
8.032
8.004
8.044
8.064
8.044
8.02
8.028
8.056
8.044
8.02
8.016
8.044
8.04
8.008
8
8.02
8.052
8.008
8.004
8.004
8.036
8
7.988
8.008
8.036
8.012
7.992
7.996
8.024
8.032
7.984
8.02
8.024
8.032
8
7.988
8.016
8.028
7.984
7.976
8.02
8.032
7.988
7.996
7.992
8.032
8.004
7.968
8.016
8.032
8.036
7.988
8.016
8.008
8.008
7.996
8.024
8.108
8.112
8.092
8.104
8.172
8.216
8.2
8.156
8.148
8.144
8.084
8.032
8.08
8.056
8.02
8
8.008
8.028
7.992
7.968
8
8.012
7.992
7.972
8
8.016
8.024
7.996
7.996
7.976
7.908
7.872
8.072
8.456
9.024
9.616
10.22
10.812
10.984
10.984
10.424
9.212
8.2
7.772
7.616
7.732
7.892
7.968
8.06
8.136
8.12
8.104
8.06
8.068
8.076
8.104
8.072
8.068
8.096
8.124
8.064
8.072
8.096
8.116
8.12
8.1
8.136
8.172
8.124
8.116
8.128
8.156
8.172
8.148
8.152
8.196
8.192
8.16
8.188
8.208
8.228
8.212
8.22
8.264
8.28
8.28
8.284
8.316
8.356
8.364
8.368
8.416
8.424
8.464
8.464
8.516
8.568
8.6
8.62
8.684
8.732
8.8
8.804
8.856
8.936
8.996
9
9.044
9.104
9.148
9.12
9.108
9.092
9.084
8.984
8.876
8.8
8.74
8.632
8.512
8.448
8.428
8.344
8.264
8.236
8.2
8.18
8.112
8.088
8.12
8.108
8.088
8.068
8.08
8.08
8.064
8.036
8.056
8.08
8.048
8.056
8.06
8.092
8.068
8.032
8.048
8.104
8.092
8.04
8.06
8.068
8.072
8.04
8.044
8.096
8.096
8.052
8.056
8.084
8.076
8.028
8.02
8.068
8.096
8.048
8.024
8.056
8.064
8.044
8.004
8.04
8.08
8.084
8.016
8.048
8.072
8.064
8.028
8.052
8.068
8.08
8.036
8.044
8.06
8.072
8.032
8.016
8.056
8.048
8.032
8.008
8.048
8.04
8.04
8.016
8.044
8.068
8.048
8.012
8.024
8.044
8.048
8.012
8.04
8.028
8.048
8.024
8.008
8.028
8.02
8.036
8.028
8.064
8.064
8.044
8.016
8.032
8.044
8.044
8.024
8.04
8.068
8.052
8.004
8.016
8.056
8.072
8.028
8.04
8.064
8.056
8.048
8.012
8.04
8.044
8.032
8.04
8.064
8.124
8.152
8.132
8.172
8.224
8.264
8.252
8.196
8.188
8.16
8.084
8.096
8.108
8.116
8.06
8.064
8.048
8.056
8.032
8.02
8.044
8.064
8.04
8.036
8.052
8.08
8.056
8.024
8.044
8.016
7.932
7.92
8.18
8.608
9.188
9.768
10.392
10.936
11.036
10.98
10.26
9.008
8.096
7.728
7.66
7.804
7.936
8.032
8.14
8.184
8.168
8.136
8.112
8.124
8.16
8.16
8.136
8.144
8.156
8.172
8.14
8.132
8.184
8.208
8.144
8.168
8.192
8.188
8.188
8.168
8.212
8.236
8.204
8.192
8.216
8.248
8.224
8.212
8.252
8.288
8.296
8.264
8.28
8.332
8.336
8.312
8.332
8.392
8.42
8.384
8.424
8.464
8.488
8.484
8.488
8.58
8.624
8.632
8.656
8.728
8.788
8.828
8.836
8.924
8.984
9.032
9.064
9.1
9.152
9.172
9.152
9.18
9.172
9.116
9.032
8.96
8.872
8.772
8.676
8.584
8.532
8.484
8.396
8.316
8.272
8.264
8.224
8.192
8.176
8.176
8.152
8.116
8.132
8.116
8.132
8.1
8.124
8.124
8.12
8.108
8.1
8.124
8.12
8.12
8.108
8.144
8.156
8.108
8.072
8.104
8.124
8.116
8.092
8.108
8.144
8.144
8.104
8.104
8.124
8.108
8.096
8.088
8.128
8.104
8.072
8.096
8.108
8.108
8.092
8.072
8.112
8.12
8.084
8.076
8.1
8.1
8.112
8.08
8.104
8.112
8.124
8.064
8.092
8.088
8.112
8.048
8.072
8.088
8.104
8.064
8.072
8.076
8.08
8.076
8.088
8.104
8.1
8.08
8.052
8.068
8.1
8.1
8.072
8.088
8.104
8.1
8.06
8.08
8.092
8.12
8.08
8.072
8.108
8.092
8.072
8.068
8.096
8.1
8.088
8.08
8.1
8.092
8.072
8.024
8.06
8.092
8.076
8.076
8.076
8.08
8.108
8.06
8.084
8.072
8.116
8.088
8.08
8.092
8.104
8.064
8.064
8.084
8.104
8.056
8.068
8.096
8.12
8.14
8.144
8.188
8.228
8.248
8.272
8.292
8.256
8.216
8.152
8.152
8.132
8.192
8.1
8.12
8.112
8.088
8.068
8.048
8.092
8.088
8.092
8.056
8.076
8.084
8.088
8.06
8.1
8.1
8.052
7.92
7.972
8.216
8.612
9.184
9.824
10.464
11.004
11.048
10.996
10.26
8.992
8.068
7.764
7.72
7.828
7.936
8.044
8.168
8.208
8.164
8.1
8.16
8.164
8.16
8.12
8.148
8.164
8.168
8.14
8.164
8.2
8.18
8.168
8.176
8.192
8.2
8.164
8.188
8.208
8.2
8.216
8.192
8.224
8.244
8.24
8.212
8.252
8.26
8.28
8.24
8.268
8.292
8.316
8.26
8.324
8.36
8.364
8.344
8.364
8.396
8.444
8.432
8.472
8.524
8.556
8.572
8.576
8.648
8.712
8.752
8.772
8.848
8.896
8.944
8.956
9.012
9.084
9.132
9.112
9.156
9.136
9.128
9.052
9.016
8.944
8.848
8.728
8.648
8.572
8.512
8.436
8.348
8.316
8.244
8.236
8.176
8.156
8.128
8.108
8.072
8.068
8.088
8.092
8.056
8.052
8.076
8.084
8.036
8.028
8.036
8.056
8.052
8.052
8.056
8.056
8.056
8.016
8.04
8.032
8.052
8.02
8.028
8.024
8.064
7.996
8.02
8.052
8.052
8.032
8.008
8.028
8.048
8.016
8
8.02
8.016
8.028
8
8.016
7.996
7.976
7.984
7.988
8.028
7.996
7.968
7.96
7.988
8
7.968
7.98
7.988
8.008
7.972
7.956
8
8.004
7.96
7.964
7.996
8.012
7.972
7.968
7.98
7.996
7.984
7.956
7.988
8.004
8
7.956
7.968
7.984
7.988
7.924
7.968
7.996
8.008
7.956
7.952
7.98
7.992
7.96
7.952
7.96
7.98
7.948
7.94
7.98
7.96
7.948
7.928
7.964
7.976
8.008
8.004
8.06
8.052
8.068
8.104
8.168
8.192
8.124
8.08
8.06
8.024
8.04
8
7.992
8.004
7.988
7.96
7.936
7.952
7.96
7.948
7.948
7.96
7.964
7.968
7.924
7.952
7.956
7.948
7.888
7.832
7.812
7.976
8.296
8.864
9.572
10.192
10.72
10.944
10.98
10.464
9.204
8.156
7.764
7.624
7.656
7.776
7.896
8.024
8.088
8.044
8.052
8.056
8.06
8.048
8.048
8.068
8.036
8.04
8.044
8.068
8.084
8.064
8.052
8.08
8.1
8.08
8.068
8.084
8.112
8.108
8.096
8.096
8.124
8.116
8.088
8.136
8.152
8.172
8.16
8.18
8.192
8.204
8.164
8.196
8.236
8.232
8.26
8.28
8.304
8.316
8.34
8.356
8.404
8.412
8.448
8.492
8.52
8.568
8.62
8.624
8.712
8.776
8.848
8.852
8.928
8.94
9.028
9.032
9.064
9.096
9.092
9.056
9.004
8.96
8.852
8.756
8.66
8.592
8.512
8.424
8.34
8.304
8.224
8.196
8.116
8.12
8.112
8.064
8.056
8.036
8.016
8.016
8.004
8.012
8.024
8.032
8.028
8.016
8.028
8.016
8.02
8.016
8.02
8.024
8.024
7.992
8.016
8.032
8.036
8
8.008
8.032
8.024
8.004
8.004
7.988
8.008
8
8.008
8.012
8.008
8.004
7.984
8.016
8.02
7.992
7.988
7.988
8
8
7.98
7.988
7.984
7.988
7.984
7.992
8
8.008
7.964
8
7.992
7.988
7.968
7.98
7.992
7.988
7.976
7.972
7.984
7.988
7.988
7.972
7.992
8
7.992
7.956
7.988
7.996
7.98
7.948
7.984
7.996
8
7.968
7.976
7.972
7.96
7.964
7.956
7.98
7.992
7.968
7.98
7.992
7.992
7.984
7.972
7.996
7.984
7.996
7.968
7.972
7.992
8.008
7.944
7.992
7.968
8.012
7.96
7.968
7.988
7.984
7.964
7.996
8.004
7.968
7.952
7.932
7.996
8.008
8.008
8.072
8.096
8.064
8.092
8.112
8.164
8.192
8.148
8.092
8.08
8.068
8.068
8.024
8.008
8.02
8.004
7.984
7.984
7.992
7.968
7.96
7.936
7.956
7.988
7.968
7.968
7.968
7.972
7.968
7.888
7.836
7.912
8.204
8.588
9.212
9.82
10.424
10.872
10.952
10.84
9.984
8.692
7.928
7.64
7.608
7.728
7.848
7.972
8.084
8.068
8.064
8.052
8.036
8.056
8.024
8.04
8.052
8.08
8.028
8.064
8.052
8.068
8.064
8.08
8.064
8.08
8.072
8.1
8.1
8.108
8.08
8.096
8.104
8.136
8.124
8.124
8.128
8.152
8.152
8.152
8.18
8.192
8.192
8.18
8.208
8.24
8.232
8.248
8.268
8.332
8.312
8.312
8.344
8.404
8.4
8.448
8.476
8.54
8.576
8.64
8.648
8.716
8.752
8.812
8.856
8.924
8.96
8.98
9.032
9.068
9.092
9.068
9.036
8.98
8.936
8.864
8.756
8.652
8.56
8.48
8.388
8.332
8.288
8.224
8.18
8.112
8.088
8.044
8.044
8.012
8.02
8.008
7.992
7.964
7.956
7.976
7.984
7.972
7.968
7.956
7.98
7.936
7.952
7.948
7.968
7.972
7.948
7.988
7.956
7.976
7.956
7.964
7.94
7.972
7.94
7.968
7.956
7.976
7.924
7.928
7.968
7.94
7.952
7.928
7.952
7.936
7.928
7.924
7.944
7.932
7.944
7.932
7.948
7.928
7.936
7.916
7.908
7.94
7.928
7.916
7.948
7.952
7.932
7.908
7.904
7.936
7.94
7.932
7.904
7.92
7.916
7.924
7.892
7.944
7.92
7.92
7.908
7.924
7.9
7.916
7.916
7.9
7.908
7.944
7.896
7.9
7.904
7.884
7.892
7.872
7.916
7.912
7.912
7.892
7.908
7.9
7.904
7.884
7.908
7.9
7.904
7.904
7.892
7.88
7.888
7.892
7.864
7.896
7.912
7.884
7.868
7.88
7.88
7.876
7.868
7.892
7.904
7.884
7.9
7.892
7.868
7.864
7.86
7.9
7.932
7.944
7.968
7.944
7.996
8.076
8.06
8.108
8.06
8.04
7.988
7.988
7.956
7.932
7.888
7.908
7.904
7.896
7.876
7.86
7.884
7.892
7.864
7.876
7.868
7.888
7.868
7.844
7.892
7.856
7.82
7.696
7.756
7.976
8.404
9.052
9.696
10.32
10.78
10.868
10.784
9.944
8.656
7.872
7.652
7.58
7.62
7.744
7.84
7.948
7.988
7.964
7.96
7.948
7.948
7.96
7.92
7.96
7.972
7.972
7.96
7.968
7.972
7.96
7.976
8
8.008
8
7.996
7.984
8.004
8.008
8.02
8.012
8.02
8.016
8.032
8.012
8.068
8.052
8.084
8.064
8.088
8.116
8.112
8.1
8.12
8.136
8.164
8.164
8.196
8.232
8.236
8.248
8.284
8.324
8.36
8.392
8.42
8.488
8.5
8.56
8.58
8.64
8.688
8.744
8.768
8.836
8.884
8.912
8.912
8.956
8.96
8.912
8.896
8.828
8.764
8.656
8.556
8.472
8.4
8.324
8.264
8.168
8.076
8.076
8.028
7.984
7.964
7.968
7.912
7.924
7.936
7.944
7.928
7.844
7.848
7.948
7.876
7.912
7.9
7.884
7.928
7.904
7.864
7.896
7.88
7.916
7.92
7.9
7.924
7.92
7.912
7.86
7.892
7.88
7.88
7.9
7.888
7.884
7.872
7.876
7.908
7.88
7.852
7.868
7.904
7.852
7.864
7.88
7.868
7.844
7.88
7.82
7.824
7.892
7.864
7.864
7.852
7.872
7.84
7.84
7.856
7.848
7.864
7.86
7.872
7.824
7.856
7.852
7.864
7.836
7.872
7.86
7.876
7.876
7.848
7.876
7.848
7.876
7.856
7.832
7.856
7.884
7.844
7.88
7.856
7.876
7.86
7.876
7.868
7.868
7.852
7.872
7.88
7.864
7.876
7.872
7.884
7.864
7.888
7.884
7.88
7.86
7.892
7.892
7.972
7.988
8.016
8
8.068
8.084
8.092
8.052
8.012
7.976
7.968
7.952
7.948
7.928
7.94
7.928
7.872
7.904
7.916
7.912
7.892
7.884
7.892
7.908
7.916
7.896
7.888
7.936
7.912
7.868
7.776
7.844
8.116
8.52
9.032
9.624
10.248
10.744
10.848
10.8
10.084
8.796
7.908
7.572
7.576
7.696
7.836
7.928
8.036
8.028
8.036
8
8.004
8.016
8.004
7.996
8.008
8.008
8.004
8.02
8.02
8.02
8.02
8.032
8.036
8.048
8.04
8.06
8.084
8.068
8.072
8.096
8.1
8.1
8.092
8.096
8.116
8.148
8.132
8.14
8.14
8.152
8.184
8.196
8.192
8.224
8.224
8.236
8.264
8.288
8.316
8.344
8.364
8.368
8.412
8.452
8.5
8.532
8.608
8.648
8.716
8.732
8.792
8.844
8.9
8.936
8.98
9.052
9.056
9.088
9.084
9.1
9.076
9.028
8.932
8.876
8.78
8.676
8.564
8.476
8.4
8.34
8.268
8.228
8.188
8.168
8.108
8.088
8.056
8.032
8.04
8.036
8.048
8.016
8.02
8.008
8.028
8
8.012
8.028
8.036
7.996
8.024
8.02
8.028
7.988
8.008
8.028
8.016
8.04
8.02
8.028
8.008
8.012
7.988
8.02
8.024
8.012
8.016
8.028
8.024
8.004
8.004
8.008
8.032
8.036
8.004
8.032
8.02
8.02
8
8.008
8.016
8.048
8.02
8.02
8.008
8.02
7.996
7.996
8.02
8.02
8.008
8.004
8.004
8
7.992
8
8.012
8.032
8.02
7.98
8.004
7.996
8.016
8.008
8.02
8.012
8.024
8.012
8.02
8.016
8.008
8
7.996
8.044
8.028
8.008
8.004
8.016
8
8.016
7.98
8.036
8.048
8.076
8.108
8.12
8.124
8.128
8.192
8.236
8.212
8.18
8.112
8.1
8.088
8.084
8.048
8.064
8.044
8.032
8.02
7.984
8.016
8.008
8.004
7.976
8.024
8
8.032
7.996
8.016
8.004
8.008
7.936
7.876
7.944
8.192
8.572
9.184
9.808
10.436
10.956
11.008
10.96
10.092
8.824
7.948
7.656
7.624
7.756
7.86
8.016
8.108
8.144
8.096
8.104
8.096
8.096
8.096
8.108
8.116
8.112
8.12
8.084
8.116
8.12
8.14
8.108
8.148
8.152
8.144
8.148
8.164
8.168
8.16
8.16
8.196
8.184
8.196
8.184
8.192
8.208
8.236
8.24
8.244
8.264
8.272
8.276
8.272
8.308
8.324
8.348
8.336
8.388
8.392
8.428
8.416
8.476
8.508
8.552
8.568
8.632
8.664
8.716
8.756
8.824
8.876
8.94
8.972
9.02
9.068
9.112
9.136
9.14
9.172
9.156
9.116
9.024
8.96
8.88
8.776
8.664
8.608
8.516
8.456
8.356
8.32
8.276
8.228
8.164
8.164
8.152
8.152
8.128
8.096
8.084
8.08
8.076
8.064
8.064
8.092
8.06
8.044
8.068
8.072
8.068
8.048
8.088
8.06
8.088
8.068
8.076
8.08
8.1
8.056
8.08
8.088
8.1
8.064
8.072
8.084
8.084
8.08
8.052
8.076
8.08
8.076
8.048
8.068
8.052
8.048
8.016
8.068
8.036
8.048
8.016
8.044
8.036
8.052
8.032
8.04
8.044
8.044
8.02
8.012
8.036
8.024
8.048
8.012
8.044
8.028
8.012
8.004
8.036
8.044
8.024
8.02
8.04
8.024
8.036
7.988
8.032
8.008
8.02
8.004
8.004
8.024
8.02
8.016
7.988
8.016
8.024
8
8.008
8.016
8.024
7.992
7.984
8
8
8.028
7.988
8.024
8.02
8.036
7.992
7.984
7.992
8.016
8.016
8.064
8.104
8.12
8.108
8.14
8.192
8.22
8.208
8.136
8.132
8.116
8.084
8.048
8.052
8.032
8.032
8.004
8.028
8.016
8.012
7.996
8.008
8.012
8.012
8.012
8.024
8.02
8.032
7.992
7.964
7.944
7.856
7.932
8.244
8.76
9.472
10.072
10.632
10.992
11.016
10.696
9.576
8.404
7.864
7.676
7.652
7.776
7.904
8.016
8.112
8.132
8.096
8.08
8.06
8.076
8.1
8.088
8.08
8.08
8.084
8.088
8.096
8.076
8.128
8.112
8.14
8.116
8.136
8.116
8.128
8.128
8.144
8.12
8.144
8.148
8.16
8.18
8.176
8.164
8.156
8.224
8.212
8.224
8.212
8.252
8.26
8.272
8.272
8.292
8.324
8.332
8.364
8.388
8.396
8.432
8.452
8.492
8.552
8.572
8.6
8.628
8.716
8.772
8.8
8.828
8.916
8.952
8.98
9.008
9.064
9.064
9.068
9.056
9.028
8.984
8.876
8.808
8.7
8.616
8.536
8.44
8.372
8.328
8.26
8.196
8.152
8.104
8.096
8.068
8.032
8.064
8.032
8.016
7.996
8.016
8.008
8.008
8.012
8.02
8.008
7.996
7.968
8.016
7.992
8.008
7.996
7.996
8.008
8.004
7.996
8
8
8
7.988
7.988
8.016
8.008
7.992
7.984
7.984
7.996
7.976
7.968
8
7.984
7.992
7.968
7.976
7.988
7.972
7.96
7.972
7.996
7.964
7.96
7.956
7.964
7.956
7.952
7.964
7.98
7.972
7.964
7.944
7.988
7.956
7.944
7.96
7.976
7.96
7.94
7.944
7.96
7.936
7.94
7.956
7.956
7.964
7.972
7.928
7.936
7.948
7.94
7.96
7.956
8.008
8.012
8.052
8.04
8.06
8.12
8.152
8.16
8.132
8.092
8.06
8.032
8.024
8
8.012
7.96
7.968
7.956
7.944
7.924
7.94
7.948
7.956
7.956
7.932
7.96
7.96
7.952
7.932
7.956
7.932
7.812
7.788
7.98
8.324
8.9
9.58
10.192
10.776
11.008
10.972
10.424
9.18
8.16
7.772
7.624
7.708
7.836
7.9
7.984
8.064
8.024
8.032
8
8.028
8.048
8.036
8.036
8.032
8.06
8.04
8.012
8.056
8.068
8.064
8.064
8.064
8.084
8.068
8.084
8.072
8.108
8.112
8.12
8.092
8.14
8.14
8.14
8.092
8.164
8.18
8.172
8.168
8.212
8.216
8.224
8.236
8.248
8.296
8.304
8.296
8.32
8.356
8.384
8.408
8.432
8.48
8.528
8.536
8.576
8.672
8.692
8.732
8.768
8.864
8.916
8.952
8.968
9.004
9.056
9.064
9.064
9.052
9.024
8.968
8.852
8.772
8.712
8.624
8.512
8.428
8.396
8.312
8.26
8.176
8.164
8.124
8.1
8.072
8.068
8.06
8.056
8.028
8.032
8.024
8.04
8.02
8.024
8.056
8.04
8.02
8.02
8.036
8.04
8.028
8.02
8.052
8.024
8.028
7.98
8.04
8.044
8.016
8.012
8.048
8.032
8.028
8.008
8.04
8.032
8.032
8.004
8.024
8.032
8.012
7.992
7.988
8.028
8.024
7.992
8.016
8.044
7.996
7.996
7.988
8.036
8.012
7.992
8
8.028
8.004
8.016
7.984
8.024
8.012
8.012
7.988
8.016
8.02
7.984
7.996
7.984
8.016
8
7.996
8
8.004
8.008
7.996
7.964
8.004
8.032
8.016
7.992
8.052
8.016
8.008
7.976
8.02
8.004
8.004
8
8.016
8.028
8
7.984
7.96
7.984
8.004
8.012
8.024
8.108
8.104
8.096
8.096
8.2
8.232
8.188
8.108
8.12
8.096
8.064
8.036
8.052
8.068
8.024
7.98
8
7.992
7.992
7.98
7.984
8.02
8.016
7.972
7.972
8.008
8.004
7.996
7.968
7.944
7.892
8
8.276
8.784
9.36
9.936
10.54
10.944
11.008
10.768
9.736
8.504
7.88
7.64
7.68
7.808
7.972
8.08
8.128
8.092
8.132
8.096
8.08
8.06
8.108
8.108
8.112
8.08
8.12
8.12
8.108
8.088
8.132
8.144
8.132
8.104
8.136
8.136
8.128
8.132
8.14
8.168
8.164
8.152
8.156
8.196
8.192
8.192
8.2
8.236
8.236
8.232
8.224
8.288
8.284
8.28
8.296
8.34
8.34
8.36
8.368
8.392
8.44
8.452
8.488
8.536
8.576
8.624
8.656
8.692
8.776
8.808
8.856
8.888
8.972
9.024
9.056
9.056
9.132
9.148
9.136
9.116
9.052
8.992
8.92
8.788
8.724
8.652
8.54
8.472
8.384
8.376
8.28
8.204
8.18
8.176
8.152
8.128
8.084
8.108
8.084
8.044
8.036
8.084
8.072
8.044
8.076
8.088
8.092
8.06
8.056
8.06
8.084
8.068
8.06
8.06
8.092
8.084
8.068
8.036
8.076
8.072
8.072
8.052
8.072
8.072
8.076
8.036
8.076
8.068
8.076
8.048
8.068
8.072
8.044
8.024
8.036
8.072
8.064
8.056
8.036
8.08
8.06
8.036
8.028
8.06
8.032
8.04
8.024
8.072
8.064
8.04
8
8.06
8.068
8.032
8.036
8.048
8.044
8.032
8.04
8.048
8.052
8.044
8.04
8.04
8.084
8.048
8.016
8.024
8.06
8.036
8.04
8.028
8.056
8.068
8.036
8.024
8.06
8.06
8.076
8.044
8.064
8.04
8.06
8.036
8.072
8.084
8.06
8.052
8.04
8.068
8.056
8.056
8.024
8.088
8.068
8.052
8.044
8.072
8.056
8.052
8.048
8.056
8.084
8.08
8.044
8.052
8.06
8.048
8.044
8.064
8.08
8.056
8.028
8.052
8.088
8.124
8.132
8.132
8.208
8.228
8.252
8.252
8.256
8.192
8.168
8.132
8.148
8.136
8.128
8.076
8.056
8.08
8.06
8.056
8.06
8.08
8.084
8.048
8.048
8.084
8.06
8.06
8.036
8.112
8.06
7.96
7.936
8.116
8.452
8.96
9.552
10.188
10.768
11.02
11.048
10.672
9.528
8.392
7.86
7.692
7.784
7.904
7.996
8.136
8.232
8.192
8.148
8.144
8.168
8.16
8.152
8.136
8.172
8.168
8.18
8.14
8.188
8.192
8.192
8.172
8.172
8.2
8.2
8.216
8.208
8.24
8.224
8.22
8.22
8.276
8.264
8.268
8.272
8.312
8.296
8.296
8.288
8.336
8.352
8.348
8.344
8.368
8.392
8.412
8.4
8.408
8.464
8.488
8.516
8.54
8.592
8.624
8.624
8.684
8.76
8.8
8.816
8.86
8.944
8.984
9.036
9.068
9.152
9.172
9.184
9.204
9.224
9.224
9.172
9.1
9.016
8.98
8.86
8.752
8.676
8.632
8.552
8.456
8.384
8.38
8.3
8.28
8.248
8.248
8.212
8.172
8.148
8.188
8.172
8.16
8.148
8.144
8.148
8.128
8.128
8.148
8.16
8.156
8.14
8.124
8.148
8.152
8.132
8.136
8.164
8.152
8.136
8.116
8.16
8.16
8.124
8.116
8.144
8.14
8.156
8.12
8.124
8.112
8.124
8.112
8.14
8.16
8.14
8.104
8.12
8.164
8.12
8.096
8.096
8.144
8.14
8.112
8.088
8.14
8.112
8.104
8.092
8.112
8.132
8.088
8.096
8.088
8.112
8.08
8.08
8.096
8.12
8.096
8.076
8.084
8.116
8.088
8.1
8.072
8.136
8.1
8.056
8.072
8.112
8.108
8.088
8.1
8.104
8.124
8.096
8.076
8.084
8.096
8.096
8.088
8.1
8.12
8.076
8.08
8.052
8.1
8.088
8.068
8.056
8.112
8.084
8.068
8.036
8.088
8.08
8.06
8.032
8.084
8.1
8.052
8.056
8.088
8.1
8.088
8.068
8.092
8.112
8.084
8.068
8.048
8.112
8.072
8.06
8.044
8.08
8.08
8.052
8.06
8.096
8.076
8.076
8.06
8.068
8.056
8.052
8.064
8.08
8.124
8.16
8.168
8.18
8.26
8.256
8.284
8.216
8.224
8.192
8.144
8.128
8.136
8.1
8.08
8.056
8.084
8.052
8.052
8.056
8.072
8.072
8.04
8.044
8.044
8.072
8.068
8.08
8.06
8.048
7.9
7.9
8.124
8.54
9.16
9.824
10.388
10.952
11.06
10.984
10.264
9.036
8.164
7.856
7.708
7.792
7.928
8.004
8.096
8.172
8.192
8.168
8.152
8.152
8.152
8.128
8.136
8.144
8.184
8.18
8.164
8.152
8.184
8.164
8.164
8.16
8.196
8.196
8.188
8.188
8.192
8.216
8.188
8.188
8.212
8.232
8.24
8.232
8.244
8.28
8.26
8.24
8.284
8.316
8.28
8.28
8.3
8.364
8.38
8.364
8.376
8.444
8.452
8.456
8.484
8.528
8.564
8.588
8.628
8.684
8.764
8.776
8.824
8.876
8.944
8.948
9.004
9.056
9.148
9.14
9.144
9.152
9.172
9.128
9.052
8.98
8.928
8.82
8.7
8.616
8.528
8.476
8.408
8.34
8.284
8.28
8.196
8.156
8.14
8.152
8.112
8.108
8.084
8.124
8.096
8.052
8.08
8.108
8.084
8.088
8.068
8.12
8.096
8.076
8.056
8.072
8.076
8.084
8.068
8.088
8.088
8.056
8.048
8.068
8.084
8.08
8.06
8.068
8.1
8.052
8.06
8.048
8.096
8.08
8.056
8.028
8.084
8.08
8.032
8.024
8.06
8.064
8.048
8.02
8.052
8.08
8.036
8.024
8.04
8.072
8.04
8.012
8.044
8.06
8.04
8.012
8.024
8.06
8.02
8.012
8.004
8.048
8.032
8.012
8.02
8.028
8.044
8.02
8.032
8.04
8.044
8.024
8.012
8.032
8.056
8.032
8.032
8.036
8.06
8.04
8.016
8.024
8.044
8.036
8.004
8.024
8.072
8.072
8.084
8.1
8.148
8.164
8.204
8.22
8.232
8.216
8.14
8.116
8.112
8.14
8.1
8.076
8.048
8.08
8.04
8.02
8.008
8.072
8.036
8.016
8.012
8.068
8.032
8.008
8.024
8.056
8.06
7.992
7.884
7.88
8.104
8.408
8.992
9.664
10.308
10.84
11.036
11.06
10.552
9.288
8.252
7.876
7.796
7.82
7.912
7.996
8.136
8.172
8.12
8.1
8.14
8.14
8.116
8.096
8.128
8.132
8.116
8.128
8.128
8.18
8.128
8.116
8.144
8.168
8.172
8.144
8.168
8.216
8.188
8.176
8.18
8.228
8.228
8.2
8.212
8.244
8.268
8.252
8.244
8.256
8.312
8.296
8.288
8.32
8.388
8.348
8.344
8.372
8.444
8.44
8.452
8.472
8.556
8.576
8.572
8.608
8.684
8.716
8.768
8.812
8.892
8.948
8.968
9.004
9.048
9.108
9.144
9.152
9.176
9.216
9.136
9.056
8.992
8.94
8.812
8.708
8.608
8.568
8.464
8.376
8.312
8.304
8.228
8.204
8.164
8.168
8.152
8.096
8.084
8.096
8.124
8.06
8.056
8.072
8.1
8.068
8.044
8.06
8.088
8.084
8.056
8.044
8.096
8.048
8.048
8.044
8.06
8.088
8.04
8.056
8.056
8.072
8.036
8.036
8.06
8.084
8.052
8.044
8.044
8.1
8.04
8.048
8.032
8.092
8.076
8.064
8.048
8.052
8.064
8.036
8.02
8.056
8.072
8.04
8.036
8.052
8.06
8.052
8.036
8.036
8.088
8.068
8.036
8.04
8.064
8.044
8.04
8.036
8.084
8.04
8.032
8.024
8.092
8.056
8.044
8.008
8.092
8.072
8.056
8.012
8.04
8.068
8.032
8.024
8.052
8.076
8.06
8.028
8.036
8.076
8.032
8.016
8.052
8.08
8.052
8.048
8.016
8.048
8.052
8.04
8.048
8.116
8.144
8.128
8.144
8.196
8.28
8.228
8.2
8.16
8.184
8.12
8.072
8.096
8.128
8.064
8.028
8.048
8.076
8.052
8.02
8.024
8.036
8.044
7.996
8.02
8.04
8.052
8.04
8.008
8.024
7.96
7.904
8.06
8.408
8.948
9.508
10.112
10.692
11.02
11.032
10.636
9.492
8.38
7.84
7.636
7.708
7.864
7.976
8.092
8.132
8.148
8.12
8.084
8.076
8.096
8.136
8.088
8.092
8.124
8.152
8.108
8.088
8.096
8.168
8.136
8.124
8.132
8.184
8.14
8.144
8.116
8.184
8.176
8.164
8.152
8.216
8.208
8.168
8.164
8.216
8.224
8.236
8.24
8.248
8.304
8.272
8.268
8.284
8.332
8.36
8.352
8.372
8.42
8.46
8.444
8.492
8.54
8.596
8.604
8.64
8.728
8.78
8.812
8.848
8.916
8.976
9.012
9.044
9.096
9.156
9.14
9.124
9.072
9.088
8.976
8.88
8.792
8.736
8.64
8.52
8.424
8.392
8.336
8.264
8.196
8.18
8.168
8.104
8.068
8.088
8.108
8.032
8.048
8.028
8.064
8.016
8.024
8.004
8.072
8.048
8.012
8.012
8.06
8.028
8.012
8.004
8.056
8.064
8.008
7.996
8.052
8.048
7.996
8.004
8.044
8.064
8.02
8.008
7.996
8.02
8
8.004
7.992
8.052
8.012
8.008
7.976
8.012
8.016
7.976
7.968
8.024
8.028
8.004
7.988
8.004
8.028
7.976
7.976
7.992
8.036
8
7.984
7.984
7.996
7.98
7.964
7.988
8.028
8.008
7.976
7.948
7.988
7.996
7.964
7.972
7.988
8.008
7.968
7.944
7.976
7.992
7.956
7.952
7.996
8.004
7.952
7.96
7.988
8
7.956
7.956
7.968
7.996
7.964
7.96
7.952
7.98
7.992
7.956
7.94
8.004
8
7.956
7.944
7.96
7.988
7.972
7.976
7.984
7.976
7.952
7.956
7.98
8.024
8.028
8.056
8.06
8.12
8.136
8.148
8.136
8.148
8.092
8.048
8.02
8.04
8.028
7.984
7.972
7.992
7.976
7.952
7.924
7.956
7.972
7.912
7.92
7.936
7.968
7.936
7.92
7.916
7.976
7.936
7.828
7.788
8.02
8.332
8.836
9.432
10.096
10.668
10.876
10.92
10.508
9.352
8.196
7.716
7.572
7.676
7.792
7.888
8.012
8.1
8.048
8.02
8.012
8.044
8.04
8.004
7.992
8.04
8.06
8.02
8.02
8.072
8.064
8.04
8.028
8.068
8.096
8.064
8.056
8.076
8.1
8.06
8.064
8.104
8.144
8.128
8.104
8.096
8.132
8.148
8.124
8.144
8.196
8.192
8.188
8.184
8.216
8.244
8.228
8.248
8.304
8.336
8.316
8.34
8.388
8.46
8.46
8.496
8.552
8.632
8.644
8.676
8.732
8.804
8.844
8.876
8.932
9.032
9.064
9.02
9.052
9.088
9.08
8.984
8.912
8.876
8.8
8.66
8.556
8.504
8.436
8.34
8.244
8.204
8.204
8.112
8.064
8.048
8.076
8.016
7.984
7.984
8.016
7.996
7.96
7.952
7.976
8.004
7.964
7.972
7.968
8.016
7.96
7.952
7.976
8.004
7.984
7.952
7.984
8.008
7.996
7.964
7.972
7.988
7.96
7.932
7.96
7.988
7.98
7.94
7.952
7.992
7.984
7.956
7.944
7.984
7.98
7.936
7.932
7.956
7.976
7.94
7.948
7.948
7.956
7.932
7.92
7.916
7.936
7.964
7.928
7.936
7.968
7.956
7.912
7.896
7.94
7.936
7.908
7.916
7.932
7.96
7.912
7.9
7.924
7.94
7.912
7.896
7.908
7.952
7.928
7.884
7.884
7.916
7.92
7.88
7.88
7.936
7.916
7.88
7.888
7.904
7.924
7.9
7.872
7.908
7.924
7.904
7.864
7.88
7.932
7.9
7.864
7.884
7.908
7.912
7.896
7.888
7.924
7.916
7.904
7.876
7.904
7.932
7.868
7.868
7.912
7.936
7.876
7.88
7.896
7.916
7.856
7.86
7.896
7.904
7.904
7.884
7.88
7.884
7.88
7.848
7.88
7.932
7.972
7.952
7.972
8.036
8.092
8.048
8.06
8.048
8.028
7.96
7.96
7.956
7.956
7.916
7.88
7.88
7.908
7.872
7.86
7.86
7.904
7.892
7.856
7.852
7.9
7.912
7.868
7.852
7.876
7.828
7.692
7.768
8.04
8.496
9.112
9.732
10.352
10.808
10.828
10.68
9.776
8.58
7.812
7.532
7.488
7.652
7.732
7.836
7.916
7.972
7.972
7.896
7.912
7.944
7.944
7.928
7.904
7.948
7.952
7.944
7.928
7.964
7.98
7.948
7.952
7.972
8
7.964
7.964
7.952
8.012
7.984
7.976
7.968
8.024
8.012
8.008
8.012
8.064
8.068
8.04
8.044
8.08
8.096
8.06
8.056
8.112
8.164
8.14
8.156
8.196
8.248
8.26
8.224
8.288
8.36
8.4
8.388
8.436
8.52
8.54
8.568
8.624
8.72
8.76
8.752
8.824
8.88
8.96
8.94
8.948
8.964
8.992
8.9
8.78
8.732
8.696
8.572
8.456
8.392
8.36
8.268
8.152
8.12
8.084
8.052
7.968
7.936
7.968
7.956
7.912
7.908
7.912
7.908
7.88
7.86
7.88
7.932
7.876
7.88
7.892
7.916
7.896
7.88
7.88
7.932
7.896
7.884
7.892
7.9
7.9
7.876
7.888
7.9
7.924
7.904
7.9
7.896
7.94
7.888
7.872
7.876
7.952
7.912
7.884
7.88
7.896
7.9
7.868
7.88
7.928
7.916
7.864
7.864
7.912
7.896
7.868
7.868
7.892
7.92
7.88
7.872
7.9
7.924
7.868
7.856
7.876
7.924
7.908
7.88
7.88
7.9
7.888
7.864
7.884
7.9
7.904
7.868
7.86
7.908
7.904
7.848
7.868
7.916
7.904
7.88
7.856
7.872
7.928
7.88
7.86
7.876
7.916
7.908
7.888
7.932
8.004
8
7.968
8.02
8.128
8.12
8.04
8.024
8.024
7.996
7.956
7.94
7.976
7.964
7.904
7.876
7.912
7.948
7.872
7.896
7.916
7.94
7.9
7.884
7.904
7.916
7.9
7.88
7.884
7.868
7.752
7.788
8.084
8.528
9.176
9.776
10.372
10.876
10.968
10.792
9.884
8.656
7.924
7.644
7.588
7.716
7.852
7.908
7.996
8.028
8.036
8.004
7.98
7.996
8.024
8.004
7.988
7.968
8.032
8.04
8.008
8.016
8.032
8.056
8.016
8.024
8.04
8.096
8.048
8.036
8.08
8.128
8.068
8.06
8.08
8.128
8.12
8.104
8.128
8.148
8.16
8.132
8.16
8.208
8.212
8.184
8.224
8.248
8.284
8.268
8.296
8.336
8.408
8.384
8.4
8.46
8.504
8.524
8.564
8.64
8.708
8.732
8.784
8.848
8.916
8.964
8.956
9.012
9.08
9.092
9.06
9.04
9.008
8.956
8.848
8.732
8.664
8.628
8.496
8.388
8.32
8.312
8.208
8.14
8.124
8.14
8.08
8.02
8
8.044
8.004
7.972
7.984
8.028
7.992
7.972
7.984
7.992
8.012
7.956
7.944
7.984
8.012
7.988
7.96
7.984
8
8
7.972
7.984
8.004
8.032
7.972
7.98
8.016
8.02
7.96
7.98
8.016
8.048
8
7.98
7.996
8.028
7.976
7.992
8.008
8.036
8.008
7.968
7.98
8.02
7.988
7.964
7.988
8.02
8
7.976
7.976
8
8.02
7.972
8
8.024
8.032
7.988
7.984
8.008
8.024
7.964
7.976
7.98
8.024
7.992
7.968
7.964
8.012
7.972
7.968
7.992
8.008
8.004
7.972
7.98
7.996
8.012
7.98
7.976
7.992
8.044
7.984
7.984
8
8.04
8.008
7.992
8.016
8.016
7.992
7.988
8.004
8.02
7.98
7.992
8.016
8.06
8.092
8.076
8.104
8.14
8.208
8.204
8.184
8.172
8.156
8.088
8.036
8.06
8.08
8.048
8.016
8.032
8.032
7.984
7.984
8.012
8.024
8.016
7.984
8.028
8.02
8.024
7.98
8.004
8
7.976
7.892
7.908
8.1
8.468
8.968
9.584
10.216
10.796
10.972
10.956
10.448
9.212
8.156
7.724
7.596
7.764
7.876
7.968
8.06
8.152
8.1
8.068
8.068
8.112
8.112
8.068
8.1
8.096
8.116
8.088
8.088
8.132
8.14
8.128
8.108
8.124
8.136
8.124
8.112
8.132
8.176
8.16
8.144
8.156
8.208
8.172
8.168
8.192
8.236
8.22
8.204
8.216
8.24
8.268
8.22
8.264
8.288
8.336
8.32
8.328
8.368
8.4
8.4
8.42
8.472
8.548
8.564
8.552
8.616
8.704
8.744
8.776
8.812
8.924
8.98
8.96
9.016
9.08
9.124
9.128
9.112
9.128
9.132
9.044
8.944
8.896
8.832
8.692
8.6
8.556
8.468
8.412
8.312
8.256
8.232
8.196
8.12
8.132
8.14
8.116
8.052
8.024
8.072
8.088
8.04
8.04
8.06
8.088
8.052
8.028
8.06
8.072
8.048
8.04
8.048
8.08
8.06
8.024
8.048
8.064
8.056
8.024
8.024
8.076
8.072
8.036
8.032
8.056
8.072
8.012
8.036
8.036
8.084
8.04
8
8.032
8.06
8.04
8.032
8.028
8.056
8.04
8.012
8.024
8.064
8.028
8.004
8.008
8.032
8.044
7.988
8.008
8.028
8.044
8.012
8.008
8.02
8.04
8.028
7.976
8.008
8.032
8.008
8
7.992
8.032
8.012
7.98
7.984
8.008
8.036
8.004
8
8.028
8.036
7.968
7.98
8
8.028
8
7.984
8.008
8.024
7.992
7.968
7.996
8.052
7.996
7.976
8.004
8.024
8.012
7.968
8.004
8.012
8.02
7.984
7.984
8.008
8.016
7.972
7.972
8.004
8.008
7.964
7.94
7.956
8.012
8
8.016
8.088
8.112
8.132
8.144
8.172
8.22
8.16
8.088
8.064
8.068
8.052
8.016
8.028
8.012
8.024
7.976
7.948
7.988
8.012
7.96
7.956
7.988
8.008
7.96
7.952
7.988
7.992
7.98
7.936
7.872
7.892
8.036
8.344
8.908
9.592
10.204
10.74
10.968
10.964
10.46
9.232
8.18
7.744
7.652
7.66
7.76
7.924
8.068
8.096
8.04
8.056
8.076
8.08
8.036
8.06
8.064
8.092
8.028
8.08
8.1
8.104
8.064
8.056
8.096
8.124
8.08
8.096
8.108
8.144
8.12
8.088
8.108
8.152
8.132
8.1
8.16
8.176
8.16
8.144
8.172
8.184
8.2
8.176
8.22
8.24
8.276
8.236
8.268
8.308
8.336
8.328
8.36
8.416
8.46
8.444
8.476
8.528
8.612
8.624
8.624
8.74
8.804
8.796
8.82
8.904
8.992
9.02
9.04
9.104
9.136
9.132
9.064
9.028
8.964
8.9
8.768
8.684
8.624
8.544
8.42
8.356
8.296
8.268
8.196
8.136
8.128
8.096
8.064
7.996
8.008
8.036
7.996
7.984
8.004
8.02
8.028
7.988
7.984
7.988
8.028
8.008
7.98
8.004
8.012
7.992
7.96
7.976
8
8
7.968
7.984
8.024
7.996
7.976
7.964
8.012
8.008
7.964
7.98
7.984
8.028
7.96
7.96
7.992
8
7.98
7.944
7.936
8
7.972
7.952
7.96
8.004
7.964
7.944
7.94
7.98
7.944
7.908
7.952
7.968
7.972
7.956
7.964
7.984
7.976
7.924
7.952
7.952
7.964
7.944
7.936
7.944
7.964
7.936
7.932
7.956
7.968
7.948
7.92
7.948
7.952
7.96
7.92
7.952
7.964
7.952
7.924
7.948
7.956
7.952
7.92
7.932
7.976
7.972
7.916
7.932
7.932
7.96
7.928
7.932
7.944
7.976
7.928
7.916
7.916
7.956
7.956
7.936
7.976
8.032
8.044
8.024
8.084
8.152
8.16
8.092
8.068
8.064
8.06
7.996
7.996
7.976
7.964
7.928
7.92
7.92
7.94
7.94
7.904
7.92
7.936
7.928
7.904
7.936
7.96
7.944
7.896
7.892
7.8
7.788
7.86
8.16
8.724
9.408
9.992
10.588
10.928
10.968
10.584
9.436
8.316
7.824
7.644
7.604
7.736
7.856
7.972
8.032
8.036
8.04
8.008
7.968
7.996
8
8.056
8.012
8.02
8.052
8.032
8.016
8
8.02
8.04
8.032
8.032
8.048
8.088
8.048
8.056
8.068
8.08
8.104
8.092
8.096
8.136
8.14
8.12
8.128
8.14
8.176
8.148
8.164
8.172
8.22
8.204
8.208
8.252
8.26
8.276
8.3
8.332
8.372
8.384
8.388
8.464
8.496
8.552
8.552
8.636
8.708
8.74
8.772
8.808
8.904
8.96
8.972
9.008
9.048
9.072
9.032
9.016
8.996
8.956
8.824
8.72
8.66
8.576
8.476
8.388
8.332
8.292
8.216
8.128
8.112
8.084
8.064
7.992
7.996
8.02
8.008
7.976
7.968
7.964
8
7.96
7.96
7.968
8
7.984
7.972
7.992
7.996
7.976
7.952
7.96
7.988
7.996
7.944
7.976
7.98
7.972
7.96
7.952
7.988
7.996
7.948
7.956
7.952
7.976
7.952
7.92
7.976
7.984
7.968
7.936
7.944
7.956
7.968
7.928
7.936
7.952
7.968
7.916
7.944
7.94
7.928
7.924
7.944
7.972
7.96
7.936
7.944
7.96
7.968
7.92
7.9
7.928
7.972
7.92
7.92
7.94
7.96
7.94
7.904
7.96
7.968
7.952
7.908
7.92
7.936
7.96
7.924
7.928
7.948
7.96
7.904
7.924
7.952
7.956
7.932
7.928
7.96
7.952
7.952
7.908
7.94
7.948
7.948
7.928
7.944
7.984
7.964
7.916
7.96
7.972
7.96
7.956
7.96
7.968
7.94
7.936
7.944
7.968
8.04
8.04
8.04
8.072
8.124
8.156
8.132
8.084
8.072
8.036
8
8
8.032
8.008
7.956
7.952
7.948
7.96
7.928
7.948
7.94
7.948
7.924
7.904
7.944
7.96
7.94
7.92
7.932
7.908
7.836
7.816
8.052
8.472
9.008
9.592
10.22
10.772
10.936
10.88
10.232
8.988
8.048
7.632
7.576
7.708
7.824
7.916
8.004
8.072
8.044
8.012
7.992
8.012
8.02
8.02
7.984
8.04
8.048
8.048
8.036
8.048
8.04
8.048
8.024
8.052
8.072
8.068
8.072
8.068
8.092
8.112
8.08
8.072
8.096
8.14
8.124
8.136
8.156
8.164
8.152
8.144
8.192
8.224
8.216
8.212
8.224
8.272
8.276
8.276
8.32
8.36
8.372
8.376
8.4
8.456
8.508
8.516
8.572
8.648
8.7
8.712
8.784
8.84
8.9
8.944
8.968
9.016
9.096
9.124
9.088
9.1
9.06
8.996
8.92
8.852
8.78
8.684
8.568
8.488
8.396
8.332
8.28
8.204
8.188
8.16
8.116
8.052
8.036
8.06
8.04
8.008
8.048
8.032
8.028
7.98
8.02
8.016
8.032
7.976
8.012
8.032
8.016
7.968
8.02
8.008
8.024
8
8.02
8.012
8.036
8
7.984
8.012
8.02
8.028
7.996
8.012
8.04
8.024
7.992
8.012
7.992
8.012
7.976
8.016
8.024
8.032
7.992
8
8.008
8.02
8.008
8.016
7.996
8.02
7.996
7.98
8.004
8.016
8.032
7.992
8.012
8.02
8.008
7.976
8.004
7.992
8.028
7.984
7.996
7.988
8.008
7.968
7.988
7.984
8.032
8.008
8.012
8.024
8.012
8.02
7.98
7.992
8.004
8.032
7.976
8.024
8.02
8.008
7.988
7.984
8.008
8.016
7.984
8.004
8.012
8.024
7.992
7.984
7.988
8.02
7.992
8.012
8.016
8.024
7.996
7.984
7.988
8.024
7.996
7.988
8.016
8.016
8.016
7.98
8
8.012
8.04
7.996
8.02
8.012
8.032
7.976
7.976
8.016
8.02
8.012
8.008
8.016
8.028
8.016
7.992
8.016
8.02
8.032
7.988
8
8.004
8.016
7.996
8.028
8.02
8.04
7.992
8.004
8.028
8.048
8.064
8.104
8.124
8.176
8.208
8.212
8.2
8.2
8.128
8.092
8.104
8.092
8.076
8.036
8.04
8.02
8.02
7.988
8.016
8.032
8.004
8.008
8.008
8.004
7.992
8
8.012
8.02
8.012
7.92
7.856
7.992
8.316
8.808
9.424
10.04
10.644
10.972
10.96
10.672
9.592
8.42
7.832
7.628
7.7
7.844
7.928
8.052
8.128
8.136
8.068
8.084
8.096
8.112
8.108
8.072
8.084
8.088
8.104
8.084
8.096
8.124
8.128
8.092
8.1
8.132
8.136
8.124
8.136
8.156
8.156
8.116
8.144
8.176
8.184
8.14
8.164
8.196
8.196
8.2
8.192
8.216
8.236
8.256
8.236
8.296
8.288
8.324
8.312
8.332
8.372
8.384
8.404
8.428
8.472
8.48
8.508
8.588
8.628
8.7
8.728
8.772
8.824
8.868
8.916
8.94
9.028
9.08
9.124
9.116
9.132
9.132
9.1
9.028
8.984
8.904
8.828
8.716
8.64
8.564
8.48
8.376
8.316
8.284
8.244
8.192
8.132
8.128
8.116
8.084
8.032
8.06
8.06
8.06
8.04
8.044
8.048
8.036
8.004
8.02
8.036
8.052
8.04
8.04
8.04
8.032
8.024
8.016
8.04
8.032
8.036
8.028
8.036
8.044
8.028
8.012
8.048
8.048
8.04
8.016
8.028
8.04
8.016
8
8.032
8.032
8.06
7.988
8.024
8.016
8.02
7.992
8.008
8.004
8.02
8.008
7.988
8.012
8.02
7.988
7.984
8.008
8.012
8.012
7.98
8.016
7.988
8.012
7.976
8.012
8
8.004
7.988
8
8.004
8
7.98
7.988
7.988
8.008
7.984
7.968
7.992
8
7.972
7.996
8.012
8.024
8.016
7.992
8
7.992
7.988
7.988
8.028
8.02
8.008
7.98
8.008
8.004
8.012
7.984
7.996
8.02
8
8.02
8.048
8.08
8.12
8.108
8.16
8.22
8.216
8.192
8.104
8.108
8.092
8.076
8.056
8.04
8.052
8.008
7.984
8.004
7.996
8.028
7.996
8.004
8.032
8.012
8
7.984
8.004
7.988
8.02
7.972
7.92
7.868
8.004
8.328
8.868
9.556
10.172
10.716
10.996
11.056
10.596
9.396
8.296
7.852
7.692
7.724
7.848
7.944
8.076
8.128
8.088
8.076
8.092
8.084
8.068
8.104
8.084
8.092
8.056
8.096
8.092
8.1
8.108
8.1
8.128
8.124
8.108
8.104
8.128
8.14
8.144
8.156
8.152
8.176
8.152
8.168
8.188
8.216
8.22
8.22
8.228
8.244
8.236
8.228
8.26
8.296
8.3
8.312
8.332
8.364
8.376
8.384
8.396
8.428
8.476
8.524
8.524
8.58
8.64
8.676
8.72
8.772
8.844
8.9
8.932
8.98
9.024
9.056
9.088
9.132
9.184
9.168
9.108
9.076
8.992
8.928
8.808
8.712
8.616
8.552
8.46
8.392
8.32
8.272
8.192
8.184
8.148
8.128
8.12
8.072
8.084
8.072
8.076
8.052
8.056
8.048
8.052
8.04
8.048
8.04
8.064
8.032
8.052
8.072
8.068
8.04
8.02
8.064
8.044
8.036
8.052
8.068
8.064
8.068
8.044
8.024
8.06
8.044
8.052
8.044
8.06
8.052
8.036
8.024
8.06
8.052
8.008
8.028
8.064
8.036
8.04
8.024
8.016
8.04
8.036
8.032
8.04
8.024
8.024
8.02
8.004
8.016
8.028
8
8.024
8.028
8.032
8.008
8.012
8.028
8
8.008
8.004
8.04
8.02
8.008
8.004
8.032
8
7.996
8.016
8.032
8.028
8.02
8.016
8.004
8.02
8.024
8.004
8.024
8.04
8.02
8.016
8.036
8.032
8.016
8.04
8.02
8.056
8.02
8.016
8.02
8.04
8.04
8.028
8.02
8.036
8.024
8.028
8.012
8.04
8.024
8.044
8.028
8.008
8.012
8.004
8.008
8.02
8.108
8.128
8.132
8.156
8.2
8.244
8.224
8.176
8.164
8.132
8.128
8.088
8.04
8.08
8.072
8.032
8.012
8.02
8.064
8.012
8.024
8.02
8.04
8.016
8.012
8.024
8.024
8.032
8.024
8.004
7.912
7.952
8.168
8.584
9.144
9.768
10.372
10.884
11.008
10.988
10.228
8.964
8.064
7.736
7.68
7.808
7.928
8.052
8.14
8.148
8.144
8.148
8.136
8.136
8.156
8.136
8.14
8.128
8.152
8.164
8.16
8.124
8.156
8.152
8.136
8.16
8.168
8.164
8.196
8.176
8.18
8.176
8.176
8.172
8.18
8.204
8.232
8.228
8.212
8.232
8.248
8.244
8.248
8.256
8.296
8.328
8.308
8.352
8.364
8.384
8.364
8.436
8.468
8.5
8.512
8.564
8.584
8.632
8.656
8.7
8.776
8.828
8.876
8.908
8.98
9.036
9.08
9.116
9.168
9.184
9.204
9.184
9.164
9.112
9.028
8.952
8.88
8.772
8.676
8.588
8.504
8.436
8.372
8.296
8.28
8.22
8.204
8.164
8.148
8.128
8.108
8.096
8.096
8.096
8.104
8.108
8.064
8.064
8.076
8.088
8.08
8.08
8.084
8.092
8.076
8.056
8.088
8.092
8.08
8.088
8.088
8.096
8.068
8.072
8.088
8.064
8.068
8.048
8.08
8.084
8.08
8.04
8.072
8.076
8.056
8.064
8.068
8.048
8.092
8.04
8.06
8.048
8.06
8.044
8.064
8.072
8.044
8.064
8.052
8.044
8.032
8.056
8.064
8.052
8.048
8.036
8.02
8.04
8.02
8.016
8
8.036
8.024
8.04
8.02
8.008
8.024
8.008
8.024
8.02
8.016
7.992
8.012
7.988
8.004
8.008
7.996
8.02
8.028
8.028
8.02
7.992
8.008
8.024
8.02
8.028
8.012
8.032
7.992
7.992
8.012
8.028
8.016
8
8.004
8.036
7.992
8.016
7.984
8.02
8.02
8.036
8.02
8.02
8.012
8.004
8.008
7.996
7.992
8.036
8.008
8.008
7.984
8.012
8.004
8.016
8.008
8.02
8.004
8
8.028
8.008
7.996
7.988
8.004
8.016
8.012
8.016
8.024
8.008
7.996
7.984
8
8.02
8.032
8.072
8.1
8.132
8.144
8.164
8.208
8.224
8.16
8.128
8.12
8.08
8.064
8.056
8.044
8.068
8.024
8.032
7.988
8.004
7.996
8.004
8
8.004
7.984
7.988
8.004
8
8
8.004
7.956
7.9
7.924
8.184
8.56
9.116
9.724
10.332
10.844
10.984
10.96
10.24
8.976
8.056
7.712
7.648
7.764
7.888
8.008
8.124
8.152
8.104
8.092
8.116
8.104
8.08
8.108
8.12
8.108
8.128
8.108
8.136
8.116
8.136
8.104
8.14
8.14
8.116
8.124
8.132
8.132
8.16
8.152
8.164
8.188
8.18
8.18
8.188
8.18
8.18
8.22
8.232
8.24
8.24
8.22
8.26
8.28
8.3
8.304
8.324
8.36
8.356
8.396
8.408
8.46
8.448
8.496
8.536
8.588
8.62
8.672
8.704
8.764
8.82
8.864
8.912
8.976
9.032
9.068
9.072
9.124
9.156
9.156
9.164
9.132
9.044
8.976
8.896
8.776
8.688
8.604
8.524
8.456
8.376
8.3
8.26
8.196
8.184
8.14
8.1
8.104
8.116
8.076
8.048
8.052
8.04
8.044
8.032
8.044
8.068
8.056
8.044
8.044
8.012
8.024
8.028
8.068
8.032
8.04
8.044
8.036
8.028
8.016
8.004
8.016
8.02
8.024
8.016
8.02
8.012
8.012
8.04
8.02
8.024
8.008
8.016
7.996
7.984
7.972
8.012
7.996
8.012
7.984
7.98
7.992
7.98
7.98
7.972
7.984
7.968
7.98
7.988
8.004
7.98
7.988
7.964
7.984
7.996
7.992
7.96
7.96
7.964
7.976
7.964
7.984
7.988
7.98
7.984
7.964
7.968
7.96
7.964
7.968
7.984
7.996
7.968
7.96
7.972
7.96
7.96
7.956
7.968
7.956
7.972
7.94
7.996
7.952
7.94
7.952
7.948
7.96
7.972
7.964
7.936
7.948
7.96
7.944
7.96
7.952
7.976
7.952
7.956
7.964
7.94
7.952
7.94
7.936
7.948
7.952
7.968
8.012
8.036
8.052
8.068
8.104
8.152
8.172
8.124
8.092
8.044
8.024
8.012
7.996
7.976
7.976
7.936
7.94
7.94
7.952
7.968
7.94
7.936
7.928
7.944
7.932
7.912
7.912
7.92
7.956
7.924
7.808
7.756
7.888
8.224
8.772
9.5
10.12
10.684
10.952
10.92
10.444
9.232
8.196
7.748
7.58
7.604
7.74
7.82
7.968
8.052
8.032
7.992
8.016
8.008
8.032
8.016
7.996
8.012
7.984
8.004
8.012
8.016
8.04
8.036
8.02
8.04
8.048
8.028
8.052
8.064
8.064
8.072
8.076
8.068
8.092
8.088
8.08
8.104
8.12
8.124
8.116
8.124
8.164
8.152
8.164
8.192
8.196
8.228
8.224
8.244
8.26
8.3
8.328
8.328
8.376
8.4
8.432
8.468
8.516
8.568
8.608
8.652
8.736
8.772
8.824
8.84
8.908
8.952
9.012
9.04
9.064
9.08
9.056
9.016
8.924
8.872
8.768
8.684
8.592
8.52
8.436
8.352
8.264
8.2
8.16
8.128
8.056
8.052
8.036
7.996
7.976
8
7.96
7.972
7.98
7.984
7.976
7.984
7.948
7.956
7.956
7.968
8
7.976
7.992
7.968
7.976
7.948
7.968
7.988
7.988
7.972
7.968
7.984
7.984
7.936
7.976
7.972
7.96
7.952
7.964
7.96
7.956
7.956
7.972
7.952
7.968
7.968
7.96
7.956
7.96
7.952
7.952
7.952
7.936
7.948
7.944
7.952
7.952
7.952
7.92
7.936
7.94
7.944
7.948
7.944
7.94
7.948
7.94
7.936
7.952
7.956
7.96
7.94
7.964
7.956
7.964
7.944
7.936
7.972
7.968
7.96
7.968
7.968
7.956
7.964
7.944
7.96
7.944
7.964
7.944
7.944
7.976
7.96
7.956
7.968
7.96
7.968
7.972
7.956
7.972
7.952
7.932
7.964
7.988
8.008
8.02
8.048
8.068
8.072
8.128
8.16
8.16
8.136
8.096
8.04
8.04
8.032
8.044
8.024
8.016
7.996
7.98
7.952
7.952
7.952
7.948
7.94
7.988
7.98
7.968
7.956
7.952
7.984
7.956
7.912
7.844
7.888
8.12
8.52
9.104
9.704
10.316
10.828
10.964
10.936
10.192
8.92
7.996
7.676
7.628
7.732
7.856
7.968
8.084
8.092
8.048
8.044
8.068
8.044
8.04
8.056
8.068
8.052
8.04
8.048
8.06
8.064
8.06
8.084
8.096
8.084
8.084
8.084
8.104
8.112
8.132
8.132
8.132
8.14
8.136
8.14
8.144
8.144
8.164
8.16
8.184
8.192
8.22
8.2
8.22
8.244
8.26
8.276
8.296
8.32
8.336
8.356
8.376
8.416
8.472
8.484
8.52
8.572
8.612
8.676
8.712
8.784
8.836
8.892
8.932
8.992
9.056
9.068
9.108
9.136
9.168
9.144
9.136
9.056
8.984
8.888
8.78
8.684
8.616
8.528
8.464
8.376
8.324
8.26
8.208
8.164
8.132
8.124
8.12
8.08
8.064
8.072
8.048
8.028
8.04
8.06
8.064
8.036
8.024
8.036
8.04
8.032
8.02
8.044
8.04
8.036
8.028
8.024
8.048
8.008
8.024
8.036
8.036
8.02
8.04
8.044
8.048
8.028
8.024
8.016
8.04
8.02
8.008
8.012
8.048
8.024
8.008
8.004
8.008
8.02
8.024
7.988
7.992
8
7.988
8.004
7.992
8.024
7.992
8
8.012
8.032
7.992
8.008
7.992
8.004
8.012
8.004
8.004
8.008
7.98
7.988
7.976
8.008
8.004
8.028
7.988
7.984
7.972
8.004
7.996
7.968
8.012
8
7.992
7.952
7.98
7.976
7.972
7.968
8.004
7.984
7.96
7.98
7.976
7.968
7.988
7.972
7.992
7.988
7.992
7.968
7.952
7.988
7.992
7.976
7.976
7.996
7.98
7.98
7.98
7.976
7.976
7.988
7.964
8.004
7.988
7.976
7.94
7.984
7.988
8.02
8.044
8.052
8.104
8.116
8.148
8.192
8.176
8.116
8.076
8.052
8.056
8.02
8.028
7.996
7.996
7.984
7.992
7.984
8
7.984
7.96
7.944
7.976
7.976
7.98
7.956
7.988
7.976
7.944
7.896
7.828
7.94
8.232
8.672
9.296
9.884
10.492
10.9
10.968
10.768
9.756
8.524
7.816
7.608
7.612
7.748
7.852
7.984
8.1
8.092
8.028
8.064
8.056
8.044
8.036
8.052
8.068
8.068
8.06
8.06
8.084
8.068
8.068
8.076
8.088
8.096
8.088
8.084
8.112
8.084
8.084
8.08
8.112
8.116
8.136
8.104
8.136
8.168
8.16
8.144
8.164
8.196
8.196
8.196
8.2
8.24
8.26
8.264
8.26
8.316
8.344
8.348
8.368
8.396
8.448
8.48
8.476
8.548
8.624
8.672
8.712
8.756
8.812
8.852
8.904
8.968
9.048
9.036
9.096
9.112
9.128
9.12
9.096
9.044
9.016
8.884
8.796
8.672
8.596
8.484
8.428
8.336
8.3
8.26
8.216
8.132
8.12
8.1
8.076
8.032
8.024
8.04
8.032
7.996
8
8.02
8.012
7.988
8.024
8.048
8.012
8.016
8.004
8.024
8.008
8
7.988
8
8.008
8.016
7.992
8.004
8.008
8
7.988
7.984
8.024
8.02
7.992
7.984
8
8
7.988
8
8.016
7.976
7.972
7.952
7.988
7.98
7.956
7.96
7.956
7.976
7.96
7.952
7.944
7.96
7.952
7.928
7.944
7.968
7.956
7.916
7.928
7.94
7.94
7.936
7.928
7.956
7.952
7.936
7.908
7.952
7.948
7.928
7.928
7.964
7.952
7.912
7.904
7.92
7.936
7.932
7.932
7.944
7.928
7.932
7.916
7.924
7.936
7.932
7.912
7.92
7.932
7.936
7.924
7.932
7.92
7.932
7.924
7.9
7.896
7.9
7.888
7.912
7.924
7.912
7.924
7.92
7.928
7.932
7.9
7.892
7.888
7.924
7.924
7.92
7.912
7.912
7.912
7.888
7.888
7.896
7.908
7.904
7.884
7.912
7.912
7.916
7.912
7.88
7.908
7.92
7.888
7.884
7.896
7.884
7.884
7.872
7.916
7.924
7.908
7.896
7.888
7.884
7.84
7.864
7.9
7.956
7.972
7.968
8
8.052
8.064
8.068
8.024
8.028
7.984
7.944
7.932
7.948
7.92
7.9
7.864
7.88
7.844
7.856
7.864
7.884
7.844
7.844
7.832
7.86
7.868
7.856
7.828
7.844
7.792
7.712
7.724
8.004
8.444
9.032
9.664
10.256
10.744
10.844
10.716
9.884
8.66
7.82
7.56
7.452
7.604
7.7
7.812
7.92
7.988
7.96
7.916
7.9
7.936
7.904
7.912
7.908
7.92
7.928
7.94
7.904
7.936
7.952
7.948
7.924
7.932
7.96
7.964
7.964
7.94
7.98
7.96
7.936
7.964
7.992
7.996
7.968
7.984
7.988
8.008
8.012
8.028
8.044
8.072
8.064
8.064
8.06
8.112
8.108
8.124
8.152
8.188
8.204
8.212
8.212
8.3
8.324
8.368
8.408
8.436
8.504
8.532
8.584
8.644
8.732
8.748
8.784
8.828
8.904
8.94
8.944
8.932
8.952
8.912
8.848
8.764
8.724
8.62
8.492
8.38
8.344
8.272
8.18
8.112
8.064
8.032
7.988
7.944
7.928
7.932
7.884
7.888
7.864
7.88
7.868
7.836
7.836
7.852
7.82
7.856
7.832
7.844
7.844
7.832
7.844
7.852
7.86
7.836
7.828
7.832
7.86
7.828
7.816
7.844
7.828
7.86
7.836
7.828
7.84
7.84
7.816
7.812
7.844
7.832
7.828
7.804
7.848
7.828
7.796
7.784
7.82
7.816
7.824
7.788
7.8
7.808
7.788
7.784
7.8
7.804
7.808
7.784
7.808
7.816
7.816
7.772
7.776
7.812
7.808
7.776
7.788
7.804
7.78
7.76
7.788
7.784
7.792
7.776
7.796
7.772
7.796
7.796
7.784
7.784
7.792
7.8
7.788
7.772
7.796
7.78
7.76
7.772
7.788
7.812
7.78
7.78
7.82
7.804
7.776
7.768
7.788
7.8
7.808
7.82
7.86
7.904
7.896
7.924
7.972
8.04
7.98
7.92
7.888
7.884
7.86
7.852
7.82
7.856
7.82
7.772
7.776
7.772
7.784
7.772
7.772
7.808
7.8
7.784
7.768
7.784
7.8
7.796
7.752
7.708
7.66
7.752
8.048
8.556
9.232
9.88
10.44
10.772
10.864
10.52
9.388
8.192
7.656
7.492
7.48
7.6
7.712
7.84
7.896
7.876
7.86
7.86
7.852
7.864
7.868
7.884
7.864
7.86
7.848
7.9
7.872
7.884
7.892
7.908
7.9
7.896
7.884
7.92
7.9
7.908
7.928
7.944
7.944
7.92
7.924
7.96
7.968
7.964
7.98
7.972
8.008
7.984
8.008
8.016
8.072
8.072
8.072
8.08
8.14
8.14
8.152
8.152
8.208
8.256
8.276
8.304
8.344
8.408
8.42
8.48
8.548
8.624
8.652
8.684
8.748
8.832
8.848
8.856
8.912
8.976
8.952
8.912
8.856
8.82
8.74
8.624
8.532
8.46
8.368
8.276
8.2
8.14
8.084
8.028
7.964
7.936
7.932
7.892
7.88
7.852
7.868
7.864
7.836
7.832
7.864
7.848
7.832
7.824
7.868
7.832
7.82
7.828
7.832
7.86
7.84
7.82
7.852
7.864
7.848
7.832
7.848
7.872
7.828
7.844
7.844
7.864
7.824
7.828
7.832
7.864
7.864
7.832
7.812
7.852
7.828
7.816
7.808
7.832
7.848
7.824
7.82
7.816
7.844
7.804
7.812
7.824
7.852
7.832
7.792
7.82
7.852
7.824
7.796
7.796
7.84
7.82
7.82
7.792
7.836
7.824
7.808
7.808
7.832
7.824
7.808
7.796
7.804
7.828
7.82
7.788
7.832
7.832
7.828
7.808
7.804
7.816
7.816
7.804
7.816
7.848
7.828
7.812
7.8
7.836
7.832
7.824
7.784
7.836
7.848
7.796
7.812
7.828
7.82
7.804
7.804
7.796
7.828
7.8
7.804
7.84
7.92
7.904
7.888
7.94
8.024
8.016
7.968
7.904
7.924
7.892
7.832
7.84
7.868
7.86
7.804
7.78
7.772
7.804
7.764
7.78
7.804
7.8
7.772
7.772
7.776
7.812
7.792
7.792
7.772
7.72
7.668
7.788
8.104
8.616
9.188
9.784
10.384
10.764
10.816
10.504
9.408
8.216
7.604
7.4
7.464
7.608
7.724
7.828
7.904
7.88
7.888
7.88
7.856
7.844
7.896
7.852
7.852
7.864
7.904
7.876
7.876
7.88
7.888
7.9
7.888
7.896
7.904
7.94
7.92
7.912
7.94
7.936
7.944
7.928
7.948
7.976
7.956
7.968
7.976
8
7.988
7.98
8.012
8.04
8.044
8.044
8.068
8.096
8.124
8.136
8.136
8.196
8.22
8.256
8.26
8.284
8.376
8.364
8.404
8.46
8.576
8.592
8.64
8.7
8.776
8.796
8.836
8.88
8.948
8.968
8.956
8.912
8.892
8.84
8.736
8.64
8.572
8.492
8.384
8.268
8.204
8.172
8.068
8.012
7.996
7.98
7.936
7.868
7.88
7.896
7.852
7.832
7.828
7.844
7.864
7.824
7.84
7.86
7.856
7.828
7.82
7.86
7.852
7.84
7.832
7.844
7.856
7.82
7.836
7.848
7.868
7.844
7.84
7.828
7.86
7.836
7.812
7.836
7.848
7.876
7.836
7.824
7.824
7.868
7.816
7.816
7.832
7.852
7.824
7.812
7.82
7.844
7.828
7.82
7.832
7.848
7.824
7.808
7.788
7.84
7.828
7.796
7.836
7.852
7.844
7.816
7.82
7.82
7.836
7.816
7.824
7.812
7.848
7.796
7.8
7.808
7.816
7.808
7.784
7.824
7.824
7.836
7.8
7.82
7.844
7.832
7.796
7.82
7.836
7.836
7.812
7.8
7.832
7.844
7.804
7.82
7.836
7.84
7.808
7.808
7.812
7.856
7.828
7.8
7.812
7.868
7.82
7.804
7.816
7.864
7.848
7.816
7.808
7.856
7.856
7.812
7.808
7.828
7.86
7.844
7.852
7.896
7.952
7.936
7.936
7.992
8.064
8.028
7.976
7.936
7.956
7.908
7.86
7.872
7.884
7.872
7.832
7.824
7.848
7.856
7.816
7.804
7.808
7.852
7.812
7.836
7.84
7.856
7.832
7.78
7.796
7.724
7.76
8.012
8.416
9.024
9.628
10.208
10.716
10.848
10.752
9.912
8.644
7.816
7.516
7.436
7.572
7.724
7.864
7.944
7.948
7.92
7.924
7.908
7.892
7.92
7.952
7.928
7.908
7.924
7.956
7.948
7.928
7.932
7.98
7.988
7.944
7.94
7.988
8.008
7.956
7.964
7.996
8.028
8.004
7.992
7.996
8.052
8.024
8.028
8.044
8.096
8.084
8.056
8.06
8.132
8.136
8.108
8.136
8.2
8.224
8.2
8.22
8.288
8.316
8.316
8.356
8.408
8.476
8.476
8.5
8.588
8.672
8.692
8.728
8.816
8.876
8.916
8.92
8.984
9.028
9.028
9
9.004
8.988
8.896
8.8
8.684
8.648
8.548
8.424
8.356
8.288
8.244
8.156
8.096
8.06
8.052
8.02
7.952
7.956
7.996
7.94
7.936
7.936
7.952
7.952
7.904
7.948
7.964
7.956
7.924
7.924
7.944
7.944
7.92
7.924
7.956
7.956
7.916
7.936
7.932
7.96
7.932
7.92
7.944
7.952
7.948
7.924
7.948
7.948
7.956
7.928
7.936
7.956
7.952
7.916
7.908
7.94
7.948
7.924
7.916
7.94
7.96
7.904
7.9
7.916
7.956
7.912
7.908
7.94
7.952
7.92
7.928
7.92
7.936
7.936
7.912
7.92
7.928
7.904
7.908
7.904
7.924
7.928
7.912
7.9
7.928
7.94
7.904
7.9
7.896
7.932
7.912
7.896
7.912
7.924
7.916
7.888
7.908
7.948
7.924
7.9
7.904
7.932
7.904
7.892
7.888
7.928
7.936
7.884
7.896
7.936
7.932
7.892
7.908
7.928
7.928
7.904
7.916
7.92
7.924
7.908
7.908
7.932
7.936
7.94
7.924
7.92
7.92
7.928
7.888
7.916
7.932
7.936
7.932
7.892
7.924
7.924
7.912
7.912
7.956
8.008
8
8
8.032
8.1
8.12
8.112
8.076
8.056
8.048
7.992
7.956
7.988
7.992
7.936
7.924
7.936
7.944
7.892
7.9
7.908
7.904
7.892
7.884
7.912
7.944
7.932
7.9
7.916
7.884
7.772
7.764
8.028
8.464
9.08
9.7
10.324
10.852
10.912
10.792
9.952
8.752
7.952
7.628
7.544
7.652
7.776
7.872
7.976
8.04
8.06
8.012
7.976
7.992
8.02
8
8.012
8.016
8.04
8.02
7.984
7.984
8.036
8.028
7.992
8.04
8.04
8.088
8.036
8.04
8.056
8.076
8.064
8.064
8.104
8.104
8.072
8.064
8.072
8.116
8.124
8.132
8.132
8.188
8.172
8.16
8.192
8.232
8.244
8.236
8.26
8.288
8.344
8.328
8.344
8.408
8.46
8.484
8.524
8.58
8.664
8.672
8.696
8.784
8.852
8.876
8.916
8.98
9.04
9.06
9.044
9.068
9.08
9.016
8.932
8.864
8.792
8.704
8.564
8.48
8.416
8.384
8.276
8.212
8.16
8.144
8.084
8.056
8.056
8.052
8.028
8.008
7.988
8.012
8.004
7.952
7.976
8.032
8
7.996
7.964
8.008
8.012
7.98
7.98
8.008
8.048
7.976
7.984
8.02
8.024
7.992
7.968
7.992
8.028
8
7.98
8.012
8.008
7.992
7.98
7.976
8.004
8.02
7.98
7.972
7.992
8.008
7.936
7.952
7.968
8
7.972
7.964
7.992
8.004
7.944
7.944
7.98
7.996
7.984
7.944
7.952
7.984
7.98
7.932
7.952
7.992
7.988
7.948
7.944
7.98
8
7.944
7.948
7.972
8.004
7.948
7.96
7.968
7.996
7.944
7.968
7.988
7.992
7.976
7.96
7.948
7.968
7.984
7.952
7.968
7.996
7.992
7.936
7.936
7.972
8.02
8
8.024
8.076
8.112
8.072
8.12
8.184
8.204
8.132
8.088
8.076
8.08
8.024
8.032
8.012
8.02
7.992
7.968
7.96
7.972
7.992
7.94
7.94
7.968
8
7.936
7.964
7.996
8.004
7.948
7.928
7.832
7.844
7.996
8.312
8.876
9.54
10.124
10.676
10.92
11.016
10.552
9.336
8.22
7.784
7.632
7.648
7.78
7.908
8.072
8.072
8.032
8.064
8.06
8.036
8.016
8.052
8.072
8.052
8.024
8.068
8.084
8.064
8.028
8.068
8.104
8.084
8.068
8.06
8.092
8.116
8.092
8.08
8.12
8.14
8.12
8.12
8.136
8.176
8.152
8.128
8.172
8.176
8.212
8.2
8.224
8.248
8.256
8.252
8.252
8.3
8.34
8.324
8.372
8.424
8.448
8.472
8.48
8.568
8.644
8.64
8.676
8.768
8.836
8.852
8.892
8.956
9.024
9.06
9.072
9.116
9.16
9.148
9.088
9.032
9.012
8.924
8.804
8.696
8.64
8.552
8.436
8.352
8.336
8.292
8.212
8.156
8.156
8.152
8.088
8.064
8.072
8.1
8.06
8.032
8.02
8.064
8.06
8.008
8.024
8.068
8.048
8.024
8.016
8.064
8.06
8.02
8.024
8.052
8.08
8.028
8.032
8.044
8.076
8.032
8.02
8.076
8.092
8.056
8.028
8.06
8.06
8.068
8.016
8.036
8.052
8.056
8.028
8.032
8.052
8.068
8.044
8.028
8.048
8.08
8.032
8.028
8.032
8.036
8.028
8.04
8.02
8.036
8.028
8
8.016
8.044
8.032
8
8.028
8.052
8.048
8.008
7.988
8.032
8.04
7.996
7.992
8.048
8.056
8.012
8.024
8.028
8.048
8.02
8.012
8.044
8.048
8.016
7.992
8.008
8.036
8.036
8.024
8.008
8.04
8.048
8.016
7.996
8.012
8.044
8.044
8.008
8.064
8.052
8.04
8.008
8.028
8.064
8.044
8.04
8.032
8.048
8.02
7.996
8.02
8.084
8.104
8.1
8.132
8.168
8.208
8.216
8.188
8.188
8.164
8.128
8.076
8.1
8.12
8.068
8.024
8.052
8.052
8.044
8.024
8.016
8.04
8.044
8.012
8.008
8.044
8.052
8.004
8.04
8.032
8.036
7.9
7.912
8.132
8.5
9.028
9.624
10.276
10.86
11.008
10.988
10.492
9.272
8.204
7.764
7.672
7.792
7.912
8.008
8.136
8.184
8.184
8.104
8.1
8.136
8.16
8.108
8.108
8.144
8.176
8.14
8.132
8.14
8.168
8.152
8.148
8.192
8.192
8.192
8.16
8.192
8.188
8.2
8.172
8.204
8.216
8.252
8.216
8.208
8.22
8.248
8.22
8.252
8.296
8.328
8.308
8.284
8.352
8.376
8.372
8.376
8.448
8.464
8.48
8.472
8.528
8.584
8.6
8.62
8.66
8.72
8.776
8.8
8.848
8.936
8.992
9.036
9.08
9.136
9.208
9.18
9.208
9.228
9.228
9.14
9.096
9.008
8.928
8.824
8.72
8.632
8.568
8.5
8.42
8.344
8.316
8.292
8.208
8.188
8.172
8.204
8.128
8.136
8.152
8.18
8.12
8.096
8.144
8.14
8.084
8.092
8.148
8.152
8.112
8.08
8.104
8.144
8.14
8.108
8.128
8.132
8.148
8.116
8.104
8.144
8.144
8.116
8.1
8.148
8.168
8.104
8.092
8.112
8.144
8.1
8.104
8.12
8.124
8.116
8.076
8.1
8.124
8.132
8.08
8.088
8.104
8.116
8.06
8.084
8.108
8.12
8.092
8.08
8.108
8.096
8.076
8.064
8.096
8.088
8.08
8.076
8.096
8.108
8.068
8.064
8.072
8.096
8.112
8.052
8.076
8.1
8.084
8.044
8.06
8.076
8.092
8.036
8.06
8.072
8.104
8.064
8.04
8.088
8.104
8.056
8.064
8.084
8.084
8.068
8.036
8.064
8.08
8.088
8.036
8.048
8.088
8.064
8.04
8.048
8.084
8.104
8.056
8.024
8.072
8.08
8.06
8.036
8.076
8.08
8.048
8.032
8.048
8.084
8.068
8.04
8.072
8.1
8.084
8.024
8.06
8.092
8.08
8.032
8.06
8.084
8.084
8.036
8.04
8.064
8.088
8.048
8.048
8.052
8.076
8.068
8.052
8.088
8.16
8.176
8.168
8.232
8.296
8.292
8.204
8.184
8.192
8.192
8.096
8.124
8.132
8.128
8.056
8.02
8.036
8.028
8.048
8.016
8.064
8.068
8.052
8
8.032
8.052
8.044
8.024
8
7.976
7.908
8.024
8.356
8.896
9.532
10.116
10.676
11.012
11.056
10.624
9.456
8.368
7.872
7.628
7.688
7.852
7.976
8.056
8.104
8.144
8.116
8.084
8.088
8.112
8.12
8.124
8.088
8.096
8.12
8.144
8.104
8.104
8.128
8.152
8.096
8.108
8.148
8.16
8.12
8.128
8.148
8.168
8.152
8.128
8.16
8.192
8.2
8.164
8.176
8.188
8.2
8.184
8.196
8.26
8.28
8.252
8.26
8.308
8.308
8.304
8.304
8.352
8.432
8.424
8.448
8.492
8.548
8.576
8.588
8.66
8.724
8.764
8.792
8.848
8.904
8.952
8.964
8.996
9.092
9.124
9.116
9.096
9.124
9.076
8.98
8.876
8.824
8.76
8.628
8.504
8.464
8.404
8.328
8.236
8.192
8.184
8.16
8.088
8.072
8.08
8.056
8.016
8
8.056
8.06
7.992
7.992
8.004
8.032
7.972
7.972
8.012
8.028
8.016
7.988
8.008
8.016
7.992
7.98
8.012
8.044
8.032
7.992
7.988
8.028
8.016
7.988
7.988
8.016
8.02
7.984
7.968
7.992
7.984
7.972
7.952
7.984
8.02
7.976
7.956
7.948
7.98
7.98
7.928
7.944
7.98
7.976
7.932
7.932
7.952
7.956
7.92
7.864
7.96
7.98
7.916
7.92
7.956
7.964
7.916
7.904
7.956
7.98
7.936
7.916
7.936
7.956
7.936
7.908
7.932
7.952
7.936
7.92
7.916
7.936
7.94
7.916
7.932
7.956
7.932
7.928
7.92
7.932
7.964
7.92
7.92
7.964
7.968
7.916
7.912
7.924
7.944
7.916
7.892
7.916
7.956
7.964
8
8.032
8.052
8.096
8.108
8.136
8.144
8.1
8.032
8.016
7.992
8.008
7.952
7.956
7.952
7.952
7.912
7.9
7.912
7.956
7.94
7.908
7.912
7.944
7.948
7.912
7.92
7.924
7.948
7.848
7.74
7.836
8.092
8.52
9.152
9.836
10.464
10.88
10.94
10.804
9.888
8.576
7.84
7.648
7.62
7.728
7.812
7.928
8.028
8.044
7.964
7.988
8.032
8.044
7.992
7.996
8.028
8.036
7.98
8.008
8.056
8.036
8.036
8.008
8.044
8.06
8.036
8.04
8.072
8.08
8.076
8.076
8.092
8.112
8.096
8.068
8.108
8.12
8.164
8.116
8.128
8.156
8.196
8.172
8.168
8.212
8.248
8.228
8.24
8.26
8.308
8.296
8.308
8.368
8.436
8.464
8.464
8.544
8.596
8.632
8.652
8.724
8.784
8.864
8.856
8.92
8.98
9.048
9.052
9.072
9.108
9.104
9.048
8.976
8.932
8.852
8.712
8.608
8.532
8.492
8.38
8.296
8.244
8.212
8.176
8.1
8.08
8.1
8.08
8.028
8.008
8.048
8.032
8.008
7.984
8.024
8.048
8
7.964
8.024
8.028
7.984
7.976
8.008
8.016
7.996
7.984
8.012
8.004
8.02
7.968
8.016
8.032
8.04
7.992
7.968
8.024
8.028
7.988
8.016
8.02
8.044
8.008
7.98
8.004
8
8
7.992
7.996
7.996
8.012
7.972
7.992
8.004
8.004
7.972
7.96
8
8.02
7.952
7.972
7.996
7.984
7.968
7.968
8.004
8
7.964
7.96
7.98
7.996
7.992
7.956
7.98
7.988
7.968
7.964
7.952
7.984
7.972
7.956
7.944
7.988
7.996
7.96
7.956
7.992
8.008
7.96
7.944
8
7.996
7.96
7.956
7.98
7.984
7.988
7.964
7.976
7.988
7.98
7.944
7.98
8
7.98
7.944
7.956
7.976
7.988
7.944
7.964
7.996
7.984
7.964
7.964
7.956
7.984
7.984
7.98
8.036
8.092
8.12
8.084
8.16
8.176
8.192
8.096
8.068
8.088
8.052
8.024
8.02
8.032
8.004
7.984
7.94
7.976
7.988
7.956
7.96
7.98
7.984
7.96
7.944
7.972
7.988
7.984
7.928
7.92
7.836
7.9
8.124
8.588
9.156
9.792
10.336
10.844
10.972
10.876
10.012
8.752
7.928
7.636
7.596
7.732
7.868
8.004
8.084
8.044
8.064
8.072
8.04
7.992
8.036
8.052
8.036
7.996
8.052
8.076
8.064
8.028
8.032
8.076
8.084
8.056
8.052
8.096
8.116
8.088
8.056
8.12
8.128
8.108
8.104
8.144
8.16
8.148
8.128
8.156
8.192
8.176
8.156
8.192
8.244
8.252
8.22
8.248
8.3
8.308
8.308
8.332
8.392
8.424
8.408
8.432
8.512
8.556
8.584
8.624
8.712
8.764
8.788
8.808
8.88
8.964
8.996
9.016
9.08
9.136
9.14
9.1
9.088
9.064
9.004
8.88
8.772
8.732
8.636
8.528
8.416
8.392
8.324
8.24
8.188
8.164
8.152
8.092
8.068
8.06
8.056
8.044
8.036
8.028
8.06
8.048
8.02
8.032
8.032
8.032
8.012
8.004
8.044
8.028
8.024
8.004
8.04
8.052
8.04
8.004
8.048
8.044
8.04
8
8.02
8.048
8.052
8.016
8.04
8.032
8.044
8.012
8.024
8.044
8.052
8.016
8.008
8.036
8.028
8.02
7.996
8.02
8.044
8.028
7.992
8.004
8.012
8
7.968
8.024
8.032
8.024
7.988
8.012
8.032
8
7.98
7.988
8.02
8.02
8
7.992
8.024
8.024
7.98
7.988
8
8.004
8.02
7.976
8.008
8.004
8.004
7.98
7.996
8.024
8.016
7.972
8.008
8.004
8.032
7.988
7.992
8.008
8.004
8
7.976
8.008
8.016
7.976
7.98
7.996
8
8.02
7.984
7.992
7.996
8.004
7.956
8.016
8.016
8.028
7.964
7.984
7.98
7.992
7.972
7.984
8.008
8.016
7.992
7.98
7.972
8.012
8.008
7.968
8.008
8.008
8
7.968
7.984
8.012
8.004
7.98
7.996
8.004
8.008
7.98
7.992
8.004
8.004
7.996
7.98
8.008
7.996
8.004
7.976
8.028
8.068
8.08
8.068
8.128
8.204
8.224
8.156
8.132
8.124
8.084
8.052
8.052
8.06
8.044
8
7.972
7.996
8.004
7.972
7.968
7.992
8
7.968
7.96
8
7.992
7.98
7.992
7.98
7.9
7.876
7.996
8.356
8.864
9.48
10.076
10.664
10.936
10.996
10.588
9.44
8.292
7.796
7.576
7.664
7.832
7.944
8.052
8.096
8.092
8.088
8.076
8.032
8.064
8.052
8.08
8.044
8.068
8.084
8.084
8.072
8.08
8.1
8.104
8.068
8.092
8.104
8.136
8.116
8.1
8.12
8.132
8.12
8.112
8.136
8.168
8.152
8.14
8.176
8.192
8.184
8.176
8.208
8.22
8.248
8.228
8.256
8.264
8.316
8.3
8.344
8.372
8.424
8.428
8.444
8.46
8.544
8.564
8.588
8.66
8.732
8.76
8.768
8.868
8.9
8.964
8.988
9.048
9.112
9.152
9.116
9.112
9.124
9.06
8.992
8.896
8.844
8.756
8.652
8.544
8.472
8.396
8.34
8.264
8.22
8.192
8.16
8.08
8.096
8.056
8.072
8.036
8.048
8.036
8.052
8.004
8.004
8.016
8.024
8.02
8.04
8.056
8.052
8.024
8.02
8.024
8.024
8.024
7.996
8.02
8.032
8.028
7.988
8.02
8.036
8.036
7.992
8.024
8.024
8.028
7.992
7.996
8.004
8.032
7.976
8.008
8.012
7.992
7.956
7.984
7.992
8.008
7.98
7.964
7.984
8.004
7.976
7.956
7.972
7.972
7.988
7.948
7.964
7.976
7.98
7.944
7.948
7.964
7.952
7.936
7.956
7.964
7.956
7.928
7.924
7.96
7.952
7.944
7.948
7.948
7.968
7.948
7.932
7.952
7.956
7.944
7.936
7.932
7.948
7.944
7.916
7.896
7.94
7.936
7.9
7.916
7.932
7.936
7.932
7.924
7.936
7.924
7.948
7.932
7.92
7.944
7.936
7.904
7.936
7.916
7.948
7.908
7.92
7.936
7.936
7.896
7.932
7.916
7.932
7.916
7.924
7.904
7.904
7.908
7.904
7.964
8.02
8
8.004
8.064
8.112
8.144
8.072
8.06
8.044
8.024
7.952
7.972
7.96
7.956
7.908
7.904
7.916
7.92
7.916
7.92
7.908
7.92
7.892
7.884
7.896
7.936
7.92
7.892
7.892
7.82
7.752
7.852
8.2
8.736
9.4
9.984
10.556
10.888
10.908
10.508
9.392
8.252
7.756
7.544
7.556
7.672
7.812
7.928
8.004
7.996
8.004
7.98
7.964
7.992
7.984
7.984
7.972
7.992
7.996
8.008
7.968
7.988
7.976
8.008
8.004
7.984
8.032
8.032
8.004
7.972
8.02
8.048
8.048
8.052
8.08
8.08
8.072
8.064
8.104
8.08
8.104
8.112
8.128
8.124
8.144
8.144
8.192
8.18
8.212
8.232
8.244
8.308
8.336
8.324
8.32
8.396
8.452
8.476
8.532
8.58
8.644
8.684
8.728
8.796
8.852
8.892
8.912
8.988
9.04
9.048
9.032
9.02
9.008
8.972
8.888
8.796
8.712
8.632
8.52
8.436
8.376
8.292
8.24
8.16
8.112
8.092
8.036
8.004
7.992
7.968
7.996
7.952
7.94
7.944
7.956
7.924
7.94
7.952
7.932
7.92
7.928
7.944
7.936
7.936
7.92
7.94
7.936
7.952
7.928
7.96
7.94
7.928
7.936
7.92
7.952
7.964
7.928
7.956
7.948
7.948
7.924
7.944
7.932
7.936
7.908
7.94
7.932
7.928
7.896
7.9
7.924
7.92
7.924
7.924
7.928
7.904
7.912
7.904
7.908
7.94
7.928
7.908
7.912
7.896
7.92
7.892
7.908
7.896
7.924
7.888
7.932
7.916
7.904
7.896
7.904
7.892
7.908
7.9
7.904
7.908
7.896
7.904
7.9
7.912
7.924
7.904
7.916
7.908
7.892
7.936
7.904
7.896
7.896
7.92
7.924
7.948
7.96
8
8.02
8.036
8.072
8.128
8.144
8.104
8.064
8.024
8.016
7.984
7.988
7.996
7.972
7.924
7.904
7.928
7.936
7.896
7.908
7.932
7.924
7.932
7.932
7.948
7.932
7.908
7.916
7.94
7.884
7.808
7.812
8.084
8.472
9.084
9.74
10.344
10.868
10.964
10.916
10.12
8.844
7.984
7.656
7.608
7.704
7.824
7.936
8.024
8.076
8.048
8.04
8.02
8.032
8.024
8.04
8.02
8.056
8.02
8.06
8.044
8.072
8.056
8.076
8.06
8.048
8.1
8.1
8.064
8.088
8.104
8.108
8.104
8.124
8.14
8.12
8.144
8.124
8.148
8.184
8.16
8.164
8.184
8.224
8.224
8.236
8.268
8.256
8.316
8.284
8.32
8.364
8.364
8.416
8.444
8.472
8.508
8.528
8.6
8.632
8.7
8.768
8.812
8.852
8.892
8.96
8.984
9.044
9.08
9.108
9.088
9.096
9.088
9.016
8.936
8.844
8.776
8.688
8.584
8.496
8.424
8.344
8.272
8.204
8.188
8.168
8.12
8.088
8.092
8.048
8.06
8.028
8.032
8.028
8.02
8.016
8.02
8.024
8.016
8.016
8.028
8.012
8.04
8.024
8.036
8.036
8.016
8.004
8.012
8.044
8.032
8.028
8.012
8.028
8.016
8.032
7.996
8.02
7.996
7.996
7.996
7.984
7.996
8.008
7.976
7.98
7.988
7.988
7.972
7.98
7.968
7.976
7.94
7.972
7.984
7.964
7.98
7.964
7.98
7.964
7.98
7.976
7.976
7.968
7.988
7.976
7.964
7.964
7.98
7.964
7.976
7.976
7.976
7.968
7.988
7.972
7.988
7.984
7.972
8.004
7.996
8
7.976
7.976
7.976
7.996
7.968
7.984
7.988
8.016
7.988
7.972
7.984
7.988
7.976
7.988
7.976
7.996
7.992
7.972
7.996
7.964
7.988
8
8.004
7.992
7.984
7.964
7.996
8.008
8.068
8.092
8.092
8.104
8.176
8.184
8.176
8.124
8.088
8.06
8.056
8.052
8.072
8.012
8.004
7.98
7.96
7.988
7.992
8.02
7.996
8
7.992
8.008
7.968
7.976
7.972
8.004
8
7.932
7.848
7.952
8.232
8.708
9.304
9.908
10.532
10.956
10.968
10.816
9.812
8.576
7.86
7.624
7.628
7.796
7.892
8.008
8.104
8.1
8.096
8.076
8.084
8.084
8.068
8.048
8.076
8.08
8.096
8.076
8.104
8.104
8.096
8.08
8.084
8.096
8.1
8.12
8.096
8.128
8.124
8.096
8.12
8.132
8.136
8.16
8.128
8.18
8.168
8.16
8.172
8.212
8.228
8.24
8.22
8.236
8.26
8.264
8.308
8.332
8.352
8.368
8.408
8.432
8.468
8.508
8.54
8.588
8.652
8.688
8.748
8.8
8.844
8.872
8.928
8.968
9.008
9.084
9.112
9.14
9.144
9.128
9.096
9.056
8.96
8.888
8.804
8.692
8.596
8.504
8.432
8.368
8.288
8.252
8.192
8.184
8.132
8.116
8.08
8.084
8.06
8.064
8.068
8.064
8.044
8.032
8.048
8.048
8.028
8.024
8.04
8.048
8.04
8.032
8.024
8.024
8.032
8.032
8.04
8.028
8.032
8.02
8.02
8.012
8.016
8.016
8.04
8.028
8.024
8.008
8.016
8.032
8.024
8.008
8.02
8.032
8.028
8.024
8
8.004
7.996
8.02
8
8.024
8
7.988
7.976
7.984
7.988
7.988
8
7.984
7.98
7.972
7.988
7.972
7.98
7.96
7.968
7.968
8
7.972
7.988
7.968
7.976
7.964
7.96
7.952
7.984
7.952
7.972
7.948
7.976
7.952
7.972
7.964
7.952
7.96
7.96
7.944
7.952
7.948
7.968
7.976
7.96
7.98
7.968
7.984
7.948
7.968
7.96
7.984
7.976
7.992
7.968
7.964
7.94
7.976
7.94
7.96
7.976
7.984
8.004
7.984
7.952
7.972
7.996
7.972
7.972
7.996
7.996
7.952
7.94
7.972
7.988
8.024
8.08
8.096
8.1
8.128
8.168
8.192
8.168
8.12
8.104
8.056
8.048
8.032
8.024
7.996
8
7.988
7.972
7.968
7.964
7.988
7.956
7.988
7.968
7.972
7.956
7.98
7.976
7.952
7.936
7.916
7.824
7.888
8.164
8.576
9.152
9.784
10.396
10.88
10.972
10.88
10.028
8.744
7.936
7.616
7.58
7.732
7.86
7.968
8.08
8.092
8.08
8.044
8.04
8.036
8.052
8.036
8.056
8.064
8.064
8.056
8.04
8.048
8.056
8.056
8.076
8.096
8.096
8.096
8.1
8.116
8.092
8.096
8.12
8.136
8.14
8.14
8.152
8.148
8.128
8.172
8.168
8.2
8.22
8.204
8.236
8.248
8.26
8.268
8.272
8.296
8.332
8.372
8.4
8.408
8.444
8.456
8.512
8.56
8.592
8.648
8.708
8.764
8.804
8.84
8.876
8.928
8.996
9.028
9.06
9.112
9.132
9.16
9.104
9.064
9.016
8.948
8.828
8.748
8.652
8.552
8.468
8.428
8.364
8.296
8.232
8.208
8.156
8.136
8.136
8.108
8.096
8.08
8.096
8.088
8.068
8.068
8.072
8.084
8.108
8.076
8.072
8.06
8.088
8.076
8.064
8.052
8.1
8.092
8.1
8.088
8.084
8.076
8.08
8.072
8.068
8.072
8.092
8.096
8.088
8.08
8.088
8.1
8.092
8.1
8.1
8.092
8.088
8.072
8.076
8.084
8.064
8.092
8.068
8.088
8.072
8.092
8.08
8.072
8.08
8.072
8.084
8.08
8.06
8.056
8.084
8.084
8.084
8.072
8.08
8.096
8.088
8.064
8.088
8.072
8.084
8.068
8.064
8.084
8.068
8.06
8.076
8.08
8.076
8.084
8.092
8.068
8.08
8.08
8.076
8.084
8.076
8.076
8.088
8.068
8.076
8.096
8.052
8.068
8.068
8.088
8.096
8.08
8.076
8.08
8.064
8.084
8.072
8.076
8.06
8.072
8.084
8.08
8.068
8.056
8.064
8.048
8.08
8.08
8.128
8.16
8.18
8.164
8.212
8.248
8.304
8.252
8.24
8.172
8.14
8.12
8.112
8.08
8.104
8.084
8.052
8.056
8.06
8.048
8.04
8.04
8.064
8.072
8.064
8.044
8.048
8.044
8.028
8.028
7.972
7.88
8.004
8.332
8.848
9.544
10.132
10.712
11.028
11.068
10.664
9.524
8.42
7.92
7.736
7.688
7.84
7.944
8.072
8.16
8.156
8.12
8.136
8.104
8.14
8.156
8.14
8.128
8.144
8.136
8.152
8.12
8.148
8.164
8.136
8.16
8.136
8.164
8.176
8.172
8.188
8.208
8.196
8.2
8.196
8.224
8.212
8.216
8.228
8.24
8.248
8.268
8.252
8.276
8.276
8.308
8.328
8.336
8.372
8.372
8.4
8.392
8.432
8.472
8.464
8.508
8.572
8.592
8.632
8.676
8.724
8.768
8.84
8.88
8.952
9.004
9.048
9.08
9.14
9.148
9.196
9.192
9.176
9.18
9.112
9.008
8.932
8.844
8.756
8.668
8.58
8.508
8.412
8.344
8.284
8.256
8.2
8.2
8.164
8.168
8.144
8.14
8.108
8.128
8.096
8.084
8.112
8.116
8.092
8.116
8.104
8.1
8.108
8.108
8.108
8.112
8.132
8.104
8.116
8.1
8.112
8.096
8.104
8.112
8.104
8.104
8.088
8.092
8.104
8.1
8.1
8.116
8.116
8.092
8.104
8.088
8.08
8.084
8.092
8.1
8.076
8.076
8.076
8.076
8.072
8.064
8.068
8.06
8.052
8.092
8.068
8.076
8.052
8.06
8.064
8.056
8.052
8.056
8.052
8.064
8.056
8.056
8.064
8.064
8.06
8.064
8.068
8.072
8.068
8.056
8.076
8.064
8.06
8.048
8.056
8.06
8.04
8.024
8.068
8.06
8.076
8.076
8.076
8.08
8.048
8.036
8.048
8.084
8.084
8.136
8.156
8.176
8.164
8.224
8.244
8.292
8.256
8.228
8.156
8.164
8.124
8.128
8.1
8.096
8.108
8.084
8.064
8.044
8.044
8.048
8.04
8.052
8.072
8.068
8.072
8.076
8.068
8.064
8.06
8.012
7.944
7.996
8.24
8.62
9.252
9.876
10.48
10.976
11.076
11.024
10.188
8.888
8.036
7.764
7.7
7.836
7.956
8.068
8.172
8.18
8.144
8.144
8.132
8.136
8.128
8.14
8.14
8.152
8.132
8.132
8.16
8.152
8.144
8.16
8.176
8.188
8.172
8.168
8.192
8.188
8.176
8.188
8.212
8.188
8.204
8.204
8.216
8.228
8.244
8.248
8.26
8.268
8.296
8.264
8.284
8.324
8.332
8.352
8.372
8.404
8.392
8.448
8.444
8.488
8.512
8.576
8.616
8.648
8.692
8.716
8.8
8.816
8.88
8.924
8.976
9.028
9.084
9.132
9.14
9.188
9.212
9.192
9.168
9.088
9.016
8.94
8.832
8.736
8.672
8.58
8.524
8.436
8.38
8.316
8.272
8.212
8.204
8.156
8.16
8.132
8.168
8.128
8.128
8.1
8.092
8.12
8.108
8.108
8.108
8.112
8.092
8.084
8.096
8.128
8.128
8.112
8.116
8.132
8.128
8.12
8.104
8.116
8.12
8.12
8.112
8.12
8.108
8.116
8.1
8.092
8.136
8.128
8.116
8.124
8.096
8.096
8.088
8.092
8.12
8.1
8.08
8.08
8.08
8.096
8.084
8.044
8.096
8.076
8.084
8.08
8.092
8.076
8.08
8.052
8.076
8.104
8.1
8.064
8.072
8.076
8.076
8.072
8.068
8.112
8.092
8.064
8.072
8.092
8.1
8.088
8.072
8.08
8.092
8.076
8.072
8.096
8.096
8.076
8.096
8.08
8.12
8.108
8.1
8.076
8.096
8.104
8.092
8.112
8.12
8.088
8.088
8.088
8.1
8.1
8.084
8.088
8.108
8.116
8.112
8.08
8.112
8.108
8.092
8.068
8.104
8.136
8.124
8.136
8.184
8.22
8.208
8.252
8.296
8.344
8.284
8.22
8.18
8.184
8.172
8.16
8.132
8.156
8.104
8.1
8.096
8.1
8.088
8.1
8.084
8.1
8.12
8.096
8.08
8.064
8.108
8.096
8.06
7.992
7.988
8.124
8.432
8.94
9.576
10.204
10.796
11.064
11.136
10.74
9.536
8.388
7.88
7.716
7.764
7.932
8.032
8.184
8.216
8.192
8.176
8.2
8.184
8.16
8.188
8.204
8.192
8.16
8.18
8.18
8.208
8.2
8.172
8.2
8.196
8.212
8.192
8.212
8.244
8.208
8.232
8.244
8.268
8.236
8.24
8.256
8.28
8.292
8.284
8.292
8.316
8.296
8.3
8.292
8.364
8.356
8.348
8.372
8.424
8.428
8.436
8.456
8.512
8.536
8.584
8.604
8.644
8.68
8.704
8.756
8.808
8.884
8.936
8.972
9.012
9.092
9.14
9.148
9.176
9.244
9.228
9.212
9.156
9.112
9.032
8.96
8.86
8.772
8.692
8.608
8.528
8.472
8.392
8.356
8.26
8.252
8.252
8.232
8.188
8.148
8.192
8.144
8.148
8.116
8.148
8.156
8.148
8.144
8.14
8.136
8.136
8.12
8.124
8.16
8.136
8.108
8.136
8.16
8.144
8.088
8.14
8.128
8.152
8.116
8.116
8.14
8.148
8.12
8.104
8.128
8.136
8.112
8.112
8.136
8.116
8.12
8.08
8.1
8.136
8.092
8.064
8.088
8.112
8.096
8.088
8.08
8.124
8.112
8.08
8.056
8.104
8.084
8.06
8.06
8.1
8.092
8.076
8.056
8.076
8.064
8.08
8.068
8.068
8.08
8.084
8.04
8.052
8.076
8.064
8.056
8.068
8.108
8.06
8.056
8.044
8.056
8.052
8.06
8.064
8.076
8.064
8.072
8.032
8.084
8.064
8.06
8.064
8.072
8.072
8.06
8.036
8.072
8.088
8.072
8.064
8.068
8.076
8.048
8.032
8.04
8.076
8.068
8.056
8.044
8.072
8.052
8.048
8.044
8.072
8.076
8.08
8.064
8.056
8.084
8.08
8.068
8.056
8.08
8.072
8.048
8.06
8.092
8.06
8.06
8.052
8.092
8.076
8.056
8.04
8.076
8.084
8.108
8.144
8.14
8.22
8.232
8.268
8.284
8.22
8.192
8.16
8.144
8.136
8.136
8.1
8.072
8.088
8.052
8.048
8.028
8.072
8.064
8.068
8.044
8.076
8.072
8.056
8.032
8.076
8.088
8.048
7.94
7.948
8.208
8.56
9.168
9.8
10.46
10.964
11.064
11
10.292
8.992
8.092
7.752
7.712
7.804
7.9
7.988
8.132
8.188
8.14
8.108
8.144
8.116
8.132
8.104
8.128
8.136
8.112
8.108
8.112
8.156
8.14
8.112
8.128
8.14
8.16
8.148
8.156
8.196
8.192
8.14
8.168
8.188
8.18
8.188
8.18
8.196
8.216
8.196
8.224
8.248
8.252
8.256
8.256
8.26
8.332
8.34
8.308
8.328
8.368
8.384
8.416
8.428
8.48
8.524
8.54
8.572
8.632
8.68
8.692
8.736
8.816
8.88
8.908
8.916
8.976
9.068
9.096
9.12
9.132
9.192
9.152
9.1
9.048
9.012
8.94
8.792
8.716
8.656
8.568
8.468
8.368
8.34
8.296
8.224
8.172
8.172
8.156
8.116
8.064
8.084
8.092
8.064
8.04
8.052
8.1
8.068
8.02
8.028
8.08
8.06
8.056
8.044
8.088
8.06
8.016
