7.964
7.948
7.972
7.936
7.948
7.948
7.968
7.948
7.94
7.952
7.956
7.928
7.94
7.952
7.964
7.928
7.928
7.924
7.956
7.924
7.944
7.944
7.964
7.956
7.936
7.912
7.944
7.944
7.928
7.924
7.964
7.988
7.944
7.98
7.996
8.004
7.996
8.02
8.052
8.096
8.128
8.14
8.16
8.2
8.148
8.068
8.048
8.064
8.04
7.996
8
8.008
7.952
7.924
7.888
7.932
7.94
7.916
7.892
7.924
7.94
7.888
7.908
7.952
7.924
7.924
7.884
7.844
7.752
7.86
8.136
8.576
9.256
9.856
10.496
11.048
11.172
11.116
10.312
8.916
7.952
7.572
7.476
7.564
7.732
7.82
7.932
8.004
8.008
8.004
7.968
7.972
7.976
7.98
7.996
7.98
8.008
8.004
8.02
7.988
8.012
8.016
8.004
8.012
8.036
8.028
8.04
8.028
8.048
8.08
8.088
8.072
8.072
8.096
8.108
8.1
8.1
8.14
8.164
8.16
8.16
8.212
8.244
8.264
8.248
8.288
8.324
8.348
8.372
8.432
8.508
8.532
8.536
8.584
8.644
8.696
8.732
8.784
8.84
8.864
8.856
8.848
8.86
8.832
8.76
8.72
8.64
8.588
8.512
8.416
8.372
8.316
8.264
8.188
8.144
8.112
8.108
8.028
8.008
8.004
7.996
7.976
7.98
7.976
7.976
7.956
7.956
7.96
7.972
7.964
7.952
7.984
8
7.972
7.948
7.96
7.988
7.968
7.948
8
8.008
7.992
7.968
7.956
7.992
7.972
7.964
7.972
7.992
8.004
7.968
7.96
7.956
7.976
7.952
7.952
7.964
7.944
7.968
7.92
7.908
7.94
7.94
7.92
7.924
7.94
7.928
7.896
7.888
7.892
7.888
7.868
7.836
7.824
7.796
7.772
7.784
7.828
7.848
7.856
7.864
7.896
7.888
7.908
7.868
7.888
7.888
7.884
7.88
7.88
7.88
7.892
7.852
7.824
7.844
7.852
7.8
7.788
7.788
7.808
7.792
7.784
7.776
7.636
7.76
7.82
7.784
7.8
7.796
7.816
7.908
7.956
7.892
7.896
7.92
7.96
8.008
7.988
8.004
8.048
8.092
8.108
8.124
8.136
8.128
8.032
7.984
7.984
7.96
7.908
7.904
7.912
7.9
7.868
7.816
7.836
7.864
7.868
7.948
7.96
7.908
7.904
7.848
7.824
7.852
7.84
7.808
7.728
7.716
7.872
8.184
8.696
9.456
10.12
10.728
11.128
11.148
10.896
9.82
8.436
7.692
7.484
7.444
7.568
7.676
7.86
8.004
8.052
7.996
7.964
7.932
7.988
8.076
8.052
7.972
7.888
7.852
7.9
7.916
7.936
7.964
8.04
8.012
7.94
7.932
7.972
8.028
8.008
8.016
7.952
7.98
7.984
7.988
8.012
8.032
8.056
8.028
8.048
8.096
8.12
8.116
8.16
8.204
8.208
8.192
8.188
8.264
8.3
8.352
8.376
8.46
8.532
8.544
8.544
8.588
8.664
8.7
8.724
8.724
8.792
8.8
8.792
8.784
8.748
8.704
8.62
8.532
8.472
8.444
8.36
8.284
8.224
8.172
8.124
8.072
8.032
7.992
7.936
7.896
7.884
7.896
7.88
7.844
7.828
7.84
7.848
7.824
7.832
7.864
7.884
7.876
7.872
7.896
7.852
7.864
7.884
7.928
7.924
7.964
7.916
7.904
7.92
7.876
7.872
7.892
7.924
7.932
7.928
7.924
7.932
7.92
7.936
7.9
7.94
7.924
7.932
7.916
7.936
7.936
7.924
7.9
7.924
7.944
7.932
7.92
7.952
7.944
7.932
7.872
7.92
7.944
7.94
7.916
7.932
7.956
7.956
7.932
7.916
7.924
7.928
7.92
7.88
7.912
7.92
7.924
7.896
7.924
7.964
7.948
7.904
7.92
7.948
7.956
7.952
7.96
7.944
7.944
7.928
7.972
7.984
8.04
8.02
8.04
8.088
8.152
8.156
8.164
8.124
8.088
8.056
8.024
8.036
8.008
7.98
7.96
7.964
7.94
7.9
7.9
7.92
7.932
7.924
7.904
7.876
7.916
7.908
7.912
7.924
7.952
7.92
7.84
7.732
7.78
8.076
8.46
9.136
9.832
10.472
11.044
11.164
11.136
10.384
9.016
7.964
7.556
7.464
7.532
7.672
7.812
7.928
8.008
7.98
7.968
7.968
7.98
7.948
7.968
7.964
8.004
7.984
7.984
7.968
8.004
8.004
7.976
7.992
8.032
8.04
8.008
8.036
8.072
8.068
8.064
8.068
8.092
8.076
8.092
8.1
8.12
8.132
8.124
8.152
8.168
8.18
8.212
8.216
8.236
8.276
8.304
8.336
8.364
8.416
8.436
8.46
8.508
8.568
8.628
8.632
8.712
8.756
8.792
8.808
8.84
8.86
8.908
8.892
8.832
8.804
8.748
8.664
8.572
8.512
8.476
8.408
8.32
8.232
8.216
8.148
8.096
8.06
8.048
8.032
8.004
7.996
8.008
8
7.956
7.952
7.968
8.008
7.988
7.944
7.988
7.96
7.956
7.972
7.972
7.976
7.976
7.972
7.984
8
7.976
7.964
7.972
8.016
7.988
7.948
7.96
7.992
7.972
7.964
7.976
7.984
8.012
8.02
8.004
8.016
8.008
7.988
7.98
8.004
8.024
7.992
7.984
7.996
8.016
8.024
8
8
7.992
8
8.02
8.004
8.004
8.028
7.992
7.984
8.004
7.996
7.976
7.98
8.012
7.98
7.956
7.972
7.992
8.004
8.028
7.996
8.02
8.096
8.068
8.052
8.12
8.196
8.248
8.268
8.24
8.176
8.136
8.092
8.048
8.06
8.052
8.06
8.024
8.004
7.976
7.964
7.964
7.976
8.016
7.984
7.984
7.972
8.004
8
7.984
7.968
7.98
7.944
7.852
7.82
8
8.316
8.876
9.592
10.232
10.888
11.208
11.252
10.884
9.7
8.38
7.74
7.552
7.556
7.692
7.824
7.92
8.04
8.036
8
8.008
8.036
8.064
8.036
8.048
8.056
8.072
8.056
8.06
8.076
8.1
8.072
8.06
8.068
8.092
8.08
8.128
8.148
8.14
8.112
8.116
8.144
8.184
8.176
8.16
8.184
8.208
8.208
8.212
8.232
8.268
8.28
8.26
8.3
8.352
8.384
8.408
8.416
8.464
8.52
8.54
8.58
8.628
8.712
8.74
8.76
8.812
8.876
8.896
8.912
8.94
9
8.972
8.916
8.852
8.804
8.744
8.672
8.608
8.556
8.496
8.416
8.336
8.284
8.244
8.184
8.136
8.136
8.148
8.092
8.072
8.064
8.076
8.064
8.036
8.036
8.068
8.068
8.048
8.04
8.036
8.052
8.048
8.072
8.064
8.096
8.076
8.04
8.072
8.088
8.08
8.052
8.076
8.096
8.08
8.036
8.064
8.076
8.068
8.056
8.068
8.092
8.092
8.048
8.032
8.072
8.072
8.06
8.06
8.064
8.072
8.04
8.028
8.036
8.028
8.008
8.008
7.996
8.024
8.012
7.976
7.972
7.98
7.98
7.936
7.944
7.928
7.936
7.892
7.888
7.88
7.892
7.872
7.876
7.908
7.912
7.896
7.896
7.928
7.94
7.96
7.964
7.984
8.012
8.056
8.084
8.16
8.192
8.196
8.136
8.076
8.096
8.08
8.024
7.984
8.012
8.02
7.976
7.924
7.952
7.932
7.948
7.928
7.952
7.96
7.956
7.948
7.96
7.98
7.956
7.948
7.904
7.876
7.8
7.884
8.196
8.736
9.46
10.056
10.676
11.144
11.224
11
10
8.696
7.876
7.532
7.48
7.612
7.732
7.852
7.956
8
8.012
7.996
7.824
7.972
7.984
7.984
7.956
7.948
8
8.02
7.996
8.004
7.884
8.056
8.02
8.02
8.072
7.876
8.044
8.024
8.064
8.072
7.94
8.088
8.112
8.16
8.14
7.98
8.132
8.172
8.168
8.16
8.148
8.272
8.296
8.272
8.288
8.348
8.38
8.392
8.444
8.496
8.568
8.568
8.6
8.692
8.752
8.784
8.804
8.86
8.936
8.992
8.996
8.944
8.884
8.888
8.872
8.836
8.784
8.636
8.504
8.436
8.408
8.316
8.248
8.228
8.24
8.212
8.148
8.228
8.268
8.196
8.132
8.148
8.096
8.12
8.1
7.98
7.956
8.204
8.592
8.748
8.488
8.208
8.1
7.904
7.9
7.952
7.952
7.96
8.088
8.156
8.008
7.916
7.86
7.868
8.072
8.096
8.032
7.952
7.964
8.092
8.08
8.036
8.024
8.06
8.076
8.032
8.068
8.088
8.056
8.032
8.084
8.06
8.116
8.068
7.992
8.252
8.356
8.144
7.904
7.924
7.92
7.976
7.996
8.08
8.092
8.008
7.896
7.912
7.94
8.036
8.14
8.216
8.256
8.228
8.18
8.1
8.108
8.064
8.08
8.072
8.056
8.024
7.992
7.976
7.96
7.964
7.928
7.952
7.964
7.96
7.944
7.94
7.976
7.976
7.956
7.96
7.98
7.936
7.804
7.748
7.94
8.264
8.8
9.48
10.14
10.764
11.16
11.22
11.012
9.924
8.544
7.832
7.608
7.608
7.684
7.796
7.892
8.008
8.028
7.996
7.988
7.996
8.012
7.968
7.992
7.984
8.012
7.988
7.976
8.008
8.04
8.008
7.996
8
8.016
8.028
8.012
8.032
8.036
8.044
8.016
8.04
8.072
8.068
8.048
8.104
8.12
8.16
8.14
8.136
8.184
8.192
8.176
8.216
8.224
8.264
8.296
8.312
8.352
8.404
8.476
8.54
8.584
8.624
8.66
8.676
8.732
8.78
8.824
8.816
8.848
8.908
8.884
8.824
8.768
8.7
8.636
8.556
8.48
8.416
8.376
8.296
8.224
8.18
8.156
8.08
8.052
8.056
8.056
8.028
8.012
8.008
8.032
7.992
7.984
8
8.008
8
8.012
8
8.032
8.012
8
7.972
8.024
8.032
8.008
7.984
8.016
8.028
8.024
8.02
7.992
8.048
8.036
8.008
8.016
8.032
8.016
8.012
8.016
8.024
8.04
8.012
7.992
8.02
8.036
8.012
7.996
8.028
8.028
8.012
7.996
8.008
8.02
8
7.976
8.004
8.036
8.02
8.024
8.016
8.024
8.024
8.032
8.036
8.06
8.076
8.056
8.08
8.108
8.104
8.112
8.112
8.184
8.268
8.268
8.244
8.228
8.168
8.136
8.124
8.092
8.084
8.08
8.048
8.032
8.036
8
7.996
8.016
8.032
8
7.976
7.988
8.004
8.008
7.98
8.012
8
8.016
7.956
7.844
7.852
8.072
8.388
8.972
9.628
10.3
10.892
11.18
11.268
10.884
9.692
8.368
7.756
7.56
7.604
7.724
7.828
7.968
8.052
8.052
8.016
8.052
8.048
8.024
8.004
8.04
8.052
8.064
8.04
8.064
8.092
8.092
8.064
8.056
8.084
8.084
8.08
8.104
8.136
8.136
8.136
8.116
8.144
8.16
8.144
8.172
8.2
8.192
8.2
8.192
8.232
8.236
8.28
8.26
8.32
8.336
8.34
8.364
8.432
8.464
8.492
8.52
8.568
8.636
8.696
8.704
8.756
8.808
8.856
8.88
8.892
8.944
8.968
8.896
8.852
8.808
8.788
8.688
8.616
8.556
8.532
8.432
8.34
8.284
8.256
8.22
8.16
8.104
8.124
8.104
8.068
8.048
8.064
8.056
8.036
8.032
8.056
8.052
8.036
8.02
8.04
8.044
8.04
8.016
8.02
8.048
8.064
8.024
8.036
8.056
8.028
8.02
8.044
8.08
8.06
8.036
8.024
8.036
8.052
8.024
8.028
8.044
8.06
8.028
8.032
8.04
8.04
8.024
8.004
8.028
8.044
8.052
8.016
8.004
8
7.988
7.98
7.992
8.032
8.02
8.012
8.008
7.984
7.996
7.996
8.004
7.992
8.032
8.008
8.004
8.016
8.04
8.036
8.036
8.072
8.096
8.12
8.12
8.18
8.224
8.248
8.204
8.156
8.128
8.128
8.06
8.04
8.044
8.04
8.004
7.956
7.96
7.992
7.964
7.956
7.964
7.964
7.944
7.956
7.972
7.992
7.968
7.944
7.956
7.948
7.888
7.768
7.824
8.12
8.532
9.216
9.864
10.528
11.072
11.156
11.08
10.364
9.04
7.996
7.6
7.48
7.568
7.688
7.792
7.928
8.056
8.02
7.988
7.968
8
7.98
7.976
7.992
8.008
8.008
8.004
7.984
8.024
8
8.012
8.02
8.044
8.06
8.048
8.024
8.052
8.072
8.08
8.064
8.068
8.112
8.116
8.092
8.124
8.128
8.148
8.164
8.16
8.204
8.232
8.22
8.248
8.284
8.296
8.308
8.332
8.404
8.44
8.472
8.504
8.572
8.612
8.668
8.68
8.72
8.764
8.796
8.816
8.824
8.84
8.812
8.764
8.724
8.696
8.628
8.548
8.476
8.412
8.368
8.284
8.232
8.196
8.16
8.104
8.06
8.064
8.028
8.012
8.004
8.016
7.992
8.028
7.968
8
7.984
7.992
7.972
7.992
8.02
8.02
7.996
7.984
8.016
8.008
7.992
7.996
8.028
8.028
8.02
8
8.02
8.036
8.004
7.98
8
8.04
8.016
7.988
7.992
8.02
8.016
8.004
8.02
8.032
8.032
7.996
8.008
8.008
8.032
8
8.012
8.044
8.036
8.008
7.988
8.008
8.024
8.012
7.984
7.988
8.04
8.048
8.032
8.024
8.08
8.092
8.084
8.096
8.116
8.128
8.124
8.172
8.252
8.272
8.244
8.216
8.172
8.18
8.156
8.112
8.092
8.1
8.076
8.048
8.028
8.032
8.044
8.016
8.028
8.024
8.028
8
8.024
8.044
8.052
8.024
8.016
8.04
7.988
7.88
7.844
8.068
8.424
8.996
9.656
10.292
10.892
11.216
11.28
10.94
9.82
8.504
7.876
7.664
7.712
7.832
7.908
8
8.128
8.112
8.08
8.064
8.092
8.084
8.064
8.08
8.092
8.116
8.092
8.1
8.084
8.124
8.112
8.096
8.132
8.128
8.14
8.14
8.152
8.16
8.152
8.132
8.172
8.212
8.208
8.196
8.208
8.224
8.24
8.24
8.24
8.292
8.304
8.312
8.332
8.364
8.392
8.408
8.428
8.48
8.532
8.576
8.604
8.632
8.664
8.728
8.74
8.812
8.844
8.892
8.88
8.904
8.916
8.904
8.844
8.808
8.772
8.708
8.62
8.556
8.488
8.448
8.376
8.304
8.264
8.228
8.192
8.168
8.124
8.108
8.092
8.088
8.048
8.096
8.084
8.064
8.036
8.068
8.072
8.056
8.064
8.096
8.112
8.092
8.056
8.1
8.076
8.088
8.08
8.1
8.116
8.108
8.088
8.084
8.112
8.128
8.076
8.1
8.1
8.12
8.08
8.1
8.128
8.104
8.096
8.092
8.1
8.108
8.096
8.084
8.096
8.092
8.096
8.056
8.08
8.112
8.1
8.072
8.084
8.072
8.08
8.072
8.056
8.092
8.096
8.088
8.064
8.076
8.076
8.064
8.088
8.092
8.104
8.08
8.084
8.1
8.112
8.14
8.152
8.16
8.168
8.212
8.228
8.28
8.324
8.324
8.276
8.212
8.216
8.204
8.172
8.156
8.128
8.156
8.108
8.072
8.068
8.092
8.072
8.044
8.076
8.056
8.076
8.064
8.06
8.096
8.096
8.06
8.06
8.052
7.94
7.924
8.092
8.444
8.988
9.576
10.204
10.828
11.232
11.3
11.052
9.996
8.684
7.972
7.692
7.74
7.872
7.94
8.04
8.136
8.176
8.148
8.124
8.112
8.136
8.14
8.12
8.128
8.148
8.156
8.128
8.152
8.132
8.156
8.136
8.156
8.144
8.192
8.184
8.172
8.192
8.224
8.188
8.188
8.228
8.24
8.26
8.228
8.256
8.272
8.292
8.268
8.308
8.364
8.356
8.368
8.388
8.432
8.472
8.492
8.5
8.564
8.624
8.636
8.68
8.716
8.768
8.808
8.848
8.88
8.936
8.988
8.98
8.992
8.972
8.964
8.884
8.844
8.772
8.728
8.652
8.548
8.516
8.464
8.36
8.304
8.268
8.26
8.216
8.172
8.172
8.156
8.136
8.096
8.108
8.14
8.116
8.092
8.064
8.068
8.064
8.004
8.008
8.008
7.992
7.928
7.84
7.84
7.872
7.872
7.94
7.94
7.936
7.844
7.704
7.624
7.692
7.78
7.892
7.968
8.004
7.976
7.988
7.988
8.016
7.992
7.992
8
8.012
8.044
8.032
8.032
8.032
8.04
8.02
8.024
8.032
8.06
8.052
8.036
8.04
8.056
8.032
8.024
8.024
8.032
8.052
8.02
8.004
8.044
8.048
8.024
8.036
8.052
8.08
8.056
8.052
8.088
8.1
8.088
8.104
8.136
8.148
8.176
8.212
8.28
8.32
8.288
8.232
8.168
8.188
8.18
8.088
8.104
8.104
8.076
8.048
8.04
8.036
8.032
8.016
8.024
8.016
8.024
8.02
8.008
8.032
8.04
8.004
8.016
8.012
7.964
7.856
7.856
8.16
8.556
9.2
9.82
10.48
11.072
11.244
11.236
10.62
9.308
8.172
7.692
7.532
7.62
7.772
7.868
8.004
8.096
8.1
8.068
8.044
8.048
8.068
8.052
8.044
8.064
8.084
8.088
8.06
8.08
8.088
8.084
8.084
8.092
8.136
8.124
8.104
8.112
8.128
8.144
8.132
8.14
8.172
8.176
8.184
8.168
8.216
8.204
8.24
8.228
8.248
8.288
8.308
8.316
8.328
8.368
8.412
8.416
8.456
8.524
8.572
8.592
8.636
8.684
8.724
8.748
8.78
8.836
8.876
8.888
8.892
8.92
8.908
8.856
8.792
8.752
8.716
8.664
8.56
8.496
8.432
8.368
8.308
8.252
8.216
8.212
8.136
8.108
8.104
8.112
8.068
8.08
8.068
8.076
8.056
8.044
8.064
8.068
8.06
8.032
8.044
8.064
8.076
8.048
8.06
8.064
8.06
8.048
8.032
8.088
8.1
8.092
8.1
8.084
8.068
8.04
8.064
8.068
8.064
8.04
8.052
8.056
8.08
8.056
8.052
8.052
8.048
8.08
8.052
8.064
8.052
8.048
8.032
8.036
8.04
8.044
8.032
8.016
8.032
8.048
8.032
8.012
8.048
8.06
8.056
8.036
8.048
8.056
8.024
8.016
8.024
8.064
8.032
8.036
8.044
8.076
8.08
8.072
8.08
8.128
8.136
8.12
8.128
8.176
8.212
8.252
8.276
8.284
8.252
8.18
8.144
8.136
8.112
8.088
8.064
8.068
8.06
8.016
8.012
8.016
8.024
8.024
7.992
7.996
8.02
7.988
8.008
8.02
8.028
8.004
8
7.944
7.86
7.864
8.1
8.424
9.052
9.724
10.356
10.932
11.216
11.272
10.864
9.584
8.312
7.756
7.552
7.572
7.7
7.848
7.992
8.076
8.072
8.052
8.072
8.048
8.032
8.04
8.068
8.048
8.044
8.068
8.068
8.052
8.056
8.06
8.088
8.112
8.084
8.092
8.108
8.1
8.104
8.112
8.152
8.164
8.148
8.144
8.14
8.192
8.172
8.184
8.208
8.236
8.236
8.244
8.284
8.308
8.304
8.336
8.352
8.428
8.44
8.472
8.516
8.564
8.58
8.656
8.664
8.748
8.776
8.792
8.844
8.868
8.9
8.888
8.888
8.876
8.852
8.76
8.66
8.632
8.576
8.488
8.396
8.372
8.3
8.276
8.18
8.14
8.152
8.124
8.08
8.072
8.072
8.048
8.048
8.036
8.032
8.044
8.028
8.016
8.036
8.04
8.048
8.048
8.036
8.032
8.048
8.02
8.012
8.072
8.056
8.024
8.028
8.036
8.048
8.024
8.04
8.052
8.064
8.052
8.056
8.064
8.052
8.04
8.024
8.04
8.04
8.064
8.056
8.06
8.016
8.004
7.984
8.012
8.032
8.02
7.996
7.996
7.992
8.028
7.98
7.972
8.02
8.012
8.008
7.96
7.984
7.992
7.988
7.98
8.004
8.028
7.98
7.976
7.956
7.988
7.976
7.972
7.972
8.004
8.012
8.004
7.984
7.972
8.016
8.008
8.024
8.064
8.096
8.084
8.12
8.184
8.208
8.204
8.212
8.172
8.136
8.112
8.084
8.04
8.02
8.016
7.988
7.98
7.988
7.968
7.952
7.956
7.984
7.96
7.936
7.936
7.968
7.964
7.96
7.932
7.964
7.928
7.832
7.76
7.896
8.192
8.636
9.32
9.932
10.596
11.116
11.184
11.104
10.26
8.876
7.9
7.552
7.468
7.588
7.724
7.812
7.96
8.04
8
7.976
7.98
7.968
7.96
7.968
7.96
7.988
7.992
7.96
8
8.028
8.004
7.968
7.996
8.02
8.02
8.008
8.02
8.068
8.06
8.02
8.048
8.084
8.112
8.096
8.092
8.116
8.144
8.152
8.128
8.176
8.216
8.204
8.216
8.248
8.292
8.3
8.304
8.34
8.42
8.432
8.432
8.496
8.58
8.588
8.612
8.632
8.72
8.756
8.764
8.78
8.828
8.84
8.804
8.76
8.724
8.696
8.616
8.56
8.46
8.416
8.376
8.272
8.188
8.18
8.12
8.108
8.048
8.06
8.02
8.02
7.968
7.976
7.968
7.984
7.948
7.952
7.96
7.94
7.944
7.94
7.952
7.968
7.932
7.92
7.96
7.948
7.936
7.956
7.972
7.976
7.98
7.956
7.948
7.984
7.94
7.936
7.972
7.972
7.976
7.944
7.936
7.96
7.968
7.94
7.952
7.976
7.984
7.96
7.956
7.944
7.956
7.932
7.944
7.96
7.936
7.96
7.932
7.94
7.952
7.936
7.924
7.94
7.952
7.936
7.948
7.932
7.976
7.948
7.96
7.988
8.02
8.008
8.024
8.068
8.108
8.176
8.172
8.16
8.132
8.1
8.068
8.032
8.016
7.988
7.984
7.944
7.936
7.932
7.916
7.924
7.924
7.924
7.912
7.868
7.912
7.92
7.92
7.892
7.892
7.916
7.9
7.832
7.72
7.736
7.984
8.36
9.06
9.78
10.404
10.984
11.132
11.132
10.484
9.14
8.092
7.688
7.544
7.568
7.696
7.764
7.868
7.984
7.98
7.948
7.96
7.924
7.936
7.936
7.976
7.964
7.968
7.964
7.964
7.984
7.98
7.976
8
8.04
8.028
8.024
8.04
8.008
8.008
8.008
8.048
8.084
8.076
8.08
8.08
8.108
8.128
8.116
8.108
8.188
8.196
8.188
8.212
8.252
8.264
8.284
8.292
8.352
8.404
8.436
8.44
8.492
8.54
8.576
8.6
8.64
8.716
8.736
8.756
8.78
8.824
8.788
8.788
8.744
8.728
8.628
8.572
8.512
8.464
8.4
8.344
8.268
8.212
8.208
8.12
8.1
8.076
8.048
8.036
8.024
8.028
8.02
8.02
8.008
8.008
8.024
8.012
8.008
7.996
8.032
8.02
8.008
8.024
8.024
8.04
8.008
8.02
8.024
8.032
8.032
8.024
8.032
8.04
8.024
8.008
8.004
8.044
8.024
8.028
8.012
8.028
8.028
7.992
8.016
8.012
8.008
8.016
8.004
8.024
7.992
8.024
7.98
8.028
8.02
8.004
7.98
8.008
8.02
8.012
7.976
7.988
8
8.024
7.996
8.004
8.02
8.032
8.028
8.036
8.084
8.1
8.096
8.092
8.124
8.2
8.232
8.22
8.22
8.2
8.112
8.096
8.1
8.068
8.044
8.032
8.064
8.02
8.004
7.964
7.952
7.988
7.98
7.96
7.96
7.984
7.988
7.96
7.976
7.968
7.976
7.968
7.9
7.832
7.884
8.14
8.528
9.128
9.74
10.384
10.972
11.168
11.236
10.62
9.304
8.196
7.74
7.596
7.664
7.772
7.908
8.004
8.048
8.028
8.02
8.02
8.012
7.992
8.008
8.028
8.028
8.016
8.012
8.036
8.036
8.036
8.052
8.068
8.076
8.072
8.064
8.088
8.088
8.052
8.088
8.108
8.116
8.124
8.124
8.14
8.168
8.164
8.168
8.188
8.232
8.252
8.252
8.272
8.316
8.32
8.336
8.384
8.432
8.464
8.484
8.52
8.552
8.616
8.64
8.688
8.736
8.796
8.804
8.832
8.868
8.888
8.9
8.868
8.848
8.812
8.736
8.656
8.592
8.536
8.444
8.376
8.328
8.284
8.216
8.176
8.128
8.116
8.076
8.056
8.048
8.048
8.06
8.044
8.02
8.044
8.032
8.016
8.028
8.024
8.052
8.02
8.024
8.028
8.048
8.024
8.032
8.036
8.048
8.044
8.032
8.032
8.036
8.048
8.016
8.02
8.06
8.028
8.032
8.028
8
8.032
8.012
8.012
8.036
8.048
8.032
8
8.012
8.012
8.008
8.008
7.992
8.008
8.012
8.008
8.012
7.996
8.004
7.988
8
8.004
8
7.996
7.968
7.984
7.996
7.98
7.988
7.984
7.996
7.992
7.984
7.988
8.028
8.004
8.008
8.04
8.064
8.08
8.068
8.064
8.12
8.16
8.212
8.22
8.244
8.192
8.116
8.112
8.092
8.084
8.052
8.048
8.016
8.024
7.984
7.964
7.952
7.956
7.952
7.94
7.968
7.948
7.96
7.956
7.96
7.948
7.956
7.952
7.912
7.804
7.86
8.044
8.404
9.032
9.66
10.272
10.896
11.164
11.212
10.764
9.488
8.244
7.676
7.472
7.54
7.688
7.82
7.956
8.008
7.972
8.004
7.976
7.968
7.94
7.996
8.012
7.968
7.98
8.008
8.012
7.992
8
8.008
8.04
8.024
8.028
8.048
8.052
8.06
8.048
8.04
8.084
8.088
8.092
8.112
8.112
8.128
8.124
8.14
8.16
8.196
8.18
8.212
8.244
8.248
8.264
8.296
8.324
8.38
8.416
8.42
8.48
8.5
8.552
8.572
8.632
8.672
8.728
8.752
8.792
8.812
8.828
8.836
8.828
8.82
8.788
8.696
8.624
8.584
8.492
8.424
8.368
8.308
8.256
8.2
8.14
8.108
8.084
8.04
8.004
7.996
8.024
7.992
7.976
7.956
7.988
7.976
7.98
7.968
7.976
7.988
7.964
7.96
7.992
7.976
7.984
7.968
7.976
7.996
8
7.98
7.988
8.004
7.992
7.972
8.016
8.024
8.016
8.012
8.032
7.984
8.016
8
7.952
7.984
8.04
8.012
7.996
7.984
7.956
8.012
7.988
7.956
8
8.044
8.036
7.988
7.976
7.964
7.904
7.94
7.972
8.008
7.952
7.956
7.88
7.868
7.924
7.92
7.944
7.908
7.888
7.872
7.932
7.972
7.956
7.928
7.94
7.924
7.876
7.972
8.004
7.928
7.94
7.88
8.008
8.052
8.152
8.14
8.08
8.208
8.244
8.104
8.08
8.12
8.096
7.916
7.928
8.004
8.032
7.976
7.872
7.776
7.808
7.888
7.888
7.94
7.996
7.768
7.724
7.848
7.924
7.928
7.888
7.844
7.796
7.752
7.908
8.288
8.988
9.648
10.168
10.804
11.092
11.188
10.756
9.436
8.144
7.568
7.32
7.376
7.596
7.76
7.86
7.892
7.896
7.928
7.912
7.9
7.912
7.916
7.9
7.896
7.936
7.964
7.968
7.916
7.864
7.888
7.916
7.94
7.968
8.008
7.948
7.9
7.924
7.968
7.96
7.972
7.968
8.008
8.028
8.04
8.024
8.08
8.112
8.068
8.04
8.108
8.144
8.172
8.188
8.188
8.256
8.284
8.316
8.344
8.408
8.456
8.468
8.456
8.544
8.58
8.684
8.756
8.828
8.784
8.716
8.636
8.704
8.724
8.692
8.584
8.548
8.512
8.44
8.348
8.228
8.236
8.176
8.104
8.04
8.036
8.024
7.956
7.928
7.976
7.948
7.964
7.956
7.864
7.84
7.9
7.952
8.008
7.952
7.78
7.768
7.836
7.884
7.88
7.888
7.988
7.912
7.904
7.924
7.856
7.844
7.86
7.856
7.88
7.944
7.9
7.872
7.852
7.876
7.972
8.004
7.828
7.796
7.9
7.884
7.856
7.912
7.912
7.848
7.82
7.884
7.924
7.928
7.832
7.824
7.872
7.876
7.868
7.836
7.88
7.872
7.856
7.872
7.884
7.94
7.968
7.94
7.932
7.92
7.928
7.988
7.972
8.016
8.104
8.08
8.088
7.996
7.96
7.912
7.952
7.952
7.88
7.896
7.864
7.868
7.856
7.864
7.88
7.856
7.896
7.736
7.732
7.816
7.828
7.86
7.82
7.744
7.792
7.792
7.764
7.688
7.688
7.896
8.24
9
9.756
10.372
10.824
11.012
11.012
10.42
9.068
7.992
7.58
7.432
7.492
7.616
7.68
7.808
7.872
7.888
7.868
7.856
7.904
7.872
7.884
7.892
7.96
7.848
7.856
7.912
7.864
7.868
7.908
7.872
7.912
7.896
7.896
7.928
7.976
8
8.016
8.02
7.984
7.956
7.924
7.964
7.976
8
8.004
8.04
8.012
8.056
8.092
8.108
8.188
8.22
8.112
8.124
8.196
8.288
8.32
8.308
8.34
8.408
8.444
8.48
8.532
8.588
8.656
8.624
8.584
8.688
8.668
8.664
8.576
8.608
8.544
8.48
8.404
8.296
8.312
8.188
8.088
8.044
7.988
7.98
7.964
7.968
7.984
7.948
7.828
7.868
7.9
7.892
7.88
7.868
7.844
7.852
7.86
7.912
7.868
7.86
7.88
7.832
7.852
7.856
7.82
7.844
7.864
7.912
7.92
7.904
7.896
7.892
7.86
7.864
7.888
7.884
7.888
7.888
7.844
7.832
7.884
7.868
7.88
7.896
7.908
7.9
7.852
7.848
7.872
7.836
7.848
7.884
7.864
7.888
7.912
7.932
7.848
7.8
7.82
7.912
7.9
7.864
7.892
7.96
8.004
7.936
7.928
7.984
8.064
8.084
8.06
8.012
7.992
7.948
7.924
7.868
7.864
7.852
7.836
7.82
7.824
7.832
7.796
7.768
7.816
7.844
7.856
7.804
7.712
7.768
7.792
7.776
7.788
7.8
7.772
7.66
7.672
7.892
8.224
8.796
9.484
10.14
10.752
10.976
10.964
10.56
9.376
8.168
7.62
7.424
7.492
7.556
7.672
7.784
7.872
7.892
7.852
7.764
7.792
7.824
7.82
7.82
7.852
7.836
7.844
7.828
7.876
7.856
7.84
7.836
7.872
7.928
7.832
7.832
7.852
7.872
7.884
7.892
7.92
7.952
7.96
7.944
7.972
7.988
7.976
7.976
8
8.064
8.068
8.088
8.156
8.216
8.3
8.296
8.052
8.032
8.204
8.268
8.316
8.332
8.424
8.444
8.46
8.56
8.604
8.652
8.652
8.636
8.628
8.656
8.644
8.632
8.552
8.46
8.372
8.264
8.128
8.108
8.076
8.02
8.016
7.988
7.888
7.804
7.82
7.816
7.84
7.84
7.812
7.836
7.796
7.7
7.684
7.756
7.772
7.752
7.796
7.856
7.828
7.772
7.788
7.784
7.808
7.8
7.796
7.86
7.92
7.896
7.836
7.824
7.816
7.816
7.8
7.832
7.864
7.852
7.812
7.828
7.82
7.824
7.8
7.808
7.816
7.804
7.808
7.816
7.872
7.9
7.872
7.824
7.8
7.768
7.848
7.772
7.692
7.768
7.824
7.876
7.808
7.788
7.884
7.92
7.912
7.972
7.864
7.824
7.936
8.012
8.052
7.98
7.948
7.996
7.992
7.944
7.856
7.832
7.756
7.76
7.724
7.7
7.784
7.824
7.78
7.788
7.716
7.776
7.772
7.712
7.736
7.784
7.764
7.776
7.776
7.8
7.72
7.628
7.652
7.964
8.336
8.904
9.56
10.216
10.784
10.972
11.044
10.44
9.168
7.968
7.516
7.384
7.48
7.56
7.672
7.776
7.868
7.856
7.832
7.856
7.844
7.844
7.828
7.84
7.864
7.84
7.844
7.86
7.884
7.88
7.856
7.856
7.884
7.892
7.892
7.876
7.916
7.908
7.9
7.904
7.924
7.932
7.956
7.94
7.96
7.968
8.004
8.004
8.008
8.036
8.02
8.088
8.068
8.164
8.152
8.168
8.196
8.24
8.276
8.304
8.352
8.412
8.488
8.496
8.496
8.576
8.636
8.644
8.66
8.712
8.72
8.648
8.62
8.584
8.512
8.44
8.376
8.324
8.268
8.196
8.124
8.064
8.032
7.988
7.936
7.916
7.916
7.912
7.852
7.84
7.852
7.844
7.828
7.804
7.832
7.828
7.828
7.808
7.816
7.828
7.844
7.816
7.84
7.84
7.852
7.848
7.824
7.844
7.852
7.84
7.856
7.864
7.88
7.848
7.84
7.832
7.868
7.86
7.864
7.884
7.892
7.86
7.856
7.888
7.896
7.896
7.924
8.008
8.128
8.208
8.232
7.856
7.716
7.952
7.844
7.78
7.972
7.84
7.64
7.66
7.788
7.884
7.936
8.004
7.96
7.932
7.928
7.964
8.048
7.96
7.936
7.968
7.892
7.98
7.944
7.892
7.896
7.912
7.876
7.84
7.828
7.852
7.84
7.78
7.752
7.768
7.78
7.768
7.752
7.78
7.776
7.768
7.768
7.748
7.784
7.768
7.74
7.696
7.652
7.616
7.756
8.06
8.62
9.268
9.86
10.5
10.948
11.032
10.828
9.788
8.428
7.64
7.356
7.336
7.504
7.668
7.78
7.868
7.88
7.86
7.824
7.8
7.824
7.852
7.852
7.856
7.836
7.844
7.876
7.844
7.856
7.888
7.904
7.872
7.864
7.876
7.912
7.896
7.9
7.936
7.952
7.94
7.94
7.936
7.972
7.98
7.984
8.012
8.044
8.032
8.048
8.08
8.096
8.12
8.112
8.144
8.2
8.188
8.228
8.264
8.328
8.36
8.388
8.452
8.468
8.556
8.584
8.604
8.628
8.704
8.684
8.7
8.696
8.668
8.604
8.536
8.488
8.44
8.38
8.308
8.236
8.192
8.14
8.064
7.996
8.004
7.968
7.916
7.872
7.884
7.896
7.884
7.852
7.84
7.872
7.852
7.852
7.824
7.864
7.856
7.84
7.836
7.832
7.856
7.848
7.852
7.832
7.868
7.852
7.832
7.868
7.872
7.864
7.836
7.86
7.86
7.86
7.836
7.844
7.832
7.84
7.82
7.828
7.844
7.856
7.816
7.808
7.824
7.852
7.804
7.816
7.824
7.848
7.816
7.808
7.82
7.828
7.8
7.808
7.84
7.84
7.828
7.828
7.816
7.86
7.86
7.864
7.904
7.936
7.9
7.916
7.996
8.032
8.064
8.04
8.024
7.992
7.976
7.924
7.904
7.868
7.868
7.836
7.796
7.796
7.792
7.796
7.792
7.792
7.796
7.792
7.772
7.804
7.812
7.8
7.792
7.772
7.776
7.78
7.692
7.608
7.652
7.884
8.26
8.916
9.648
10.28
10.828
10.928
10.924
10.256
8.948
7.876
7.504
7.368
7.388
7.532
7.644
7.744
7.84
7.828
7.816
7.824
7.82
7.836
7.808
7.844
7.84
7.828
7.824
7.848
7.872
7.852
7.836
7.868
7.88
7.848
7.84
7.86
7.892
7.892
7.884
7.896
7.936
7.924
7.912
7.932
7.956
7.976
7.948
7.988
8.032
8.032
8.024
8.012
8.072
8.08
8.116
8.152
8.2
8.24
8.252
8.284
8.324
8.364
8.408
8.424
8.476
8.516
8.56
8.572
8.588
8.616
8.628
8.608
8.56
8.524
8.468
8.372
8.316
8.268
8.22
8.152
8.068
8.036
8.024
7.972
7.908
7.884
7.896
7.876
7.864
7.868
7.86
7.832
7.824
7.808
7.824
7.844
7.82
7.836
7.848
7.868
7.828
7.824
7.848
7.868
7.864
7.848
7.868
7.876
7.848
7.86
7.86
7.86
7.88
7.864
7.856
7.872
7.872
7.836
7.852
7.864
7.884
7.872
7.856
7.872
7.864
7.86
7.848
7.848
7.884
7.856
7.844
7.876
7.84
7.852
7.82
7.828
7.856
7.848
7.832
7.86
7.872
7.836
7.824
7.836
7.856
7.872
7.872
7.868
7.92
7.936
7.92
7.928
7.96
8
8.044
8.08
8.116
8.124
8.044
7.952
7.992
7.96
7.944
7.92
7.924
7.916
7.876
7.836
7.816
7.84
7.824
7.836
7.84
7.86
7.844
7.828
7.824
7.848
7.84
7.812
7.82
7.8
7.728
7.672
7.82
8.164
8.7
9.336
9.948
10.552
10.984
11.052
10.812
9.788
8.468
7.74
7.476
7.46
7.596
7.744
7.784
7.88
7.888
7.888
7.868
7.84
7.844
7.868
7.84
7.828
7.864
7.872
7.884
7.876
7.888
7.912
7.916
7.884
7.892
7.912
7.944
7.928
7.936
7.948
7.94
7.94
7.944
7.98
7.98
8
7.972
7.996
8.04
8.04
8.056
8.084
8.084
8.124
8.148
8.148
8.208
8.232
8.252
8.28
8.352
8.408
8.424
8.436
8.52
8.56
8.568
8.6
8.672
8.696
8.72
8.704
8.724
8.696
8.636
8.58
8.528
8.468
8.392
8.312
8.26
8.22
8.152
8.088
8.052
8.028
7.996
7.96
7.94
7.936
7.936
7.88
7.884
7.896
7.896
7.9
7.872
7.916
7.92
7.904
7.86
7.892
7.908
7.912
7.916
7.916
7.928
7.924
7.896
7.908
7.932
7.924
7.916
7.924
7.948
7.928
7.928
7.88
7.924
7.936
7.936
7.92
7.932
7.944
7.908
7.888
7.928
7.932
7.936
7.92
7.928
7.94
7.924
7.912
7.904
7.928
7.916
7.912
7.912
7.916
7.932
7.92
7.916
7.932
7.944
7.932
7.924
7.928
7.94
7.908
7.916
7.916
7.916
7.92
7.916
7.928
7.936
7.936
7.924
7.924
7.968
7.968
7.972
7.988
8.004
8.016
8.004
8.016
8.12
8.168
8.168
8.164
8.128
8.072
8.036
8.024
8
7.976
7.988
7.964
7.956
7.94
7.908
7.896
7.9
7.92
7.924
7.896
7.904
7.936
7.912
7.884
7.892
7.912
7.904
7.86
7.764
7.8
8.016
8.34
8.888
9.524
10.164
10.76
11.072
11.136
10.78
9.6
8.312
7.66
7.492
7.544
7.664
7.796
7.932
8.032
8
7.968
7.972
8
7.964
7.964
7.98
7.988
7.984
7.98
7.988
8.02
8.012
8.016
8.024
8.036
8.044
8.024
8.04
8.052
8.06
8.084
8.068
8.076
8.096
8.068
8.088
8.108
8.132
8.128
8.128
8.152
8.2
8.184
8.2
8.248
8.284
8.296
8.304
8.344
8.4
8.44
8.448
8.48
8.536
8.58
8.612
8.68
8.748
8.764
8.792
8.82
8.844
8.872
8.832
8.824
8.784
8.752
8.652
8.584
8.516
8.448
8.408
8.308
8.288
8.232
8.192
8.124
8.096
8.1
8.088
8.044
8.028
8.036
8.048
8
8.004
8.008
8.02
8
7.988
8.04
8.02
8.016
8.012
8.02
8.032
8.024
8.02
8.04
8.052
8.04
8.024
8.008
8.048
8.056
8.032
8.02
8.056
8.052
8.024
7.996
8.028
8.04
8.032
8.02
8.032
8.04
8.016
8.004
8
8.028
8.02
8.02
7.996
8.032
8.02
8
7.992
8.016
8.028
7.996
8.004
8
8.016
7.964
7.98
8.004
8.004
8.008
8.004
7.988
8
7.988
7.972
7.988
8.02
8
7.984
8
8.02
8.02
7.992
7.98
7.988
8.02
7.976
8.004
8.028
8.048
8
8.028
8.052
8.052
8.076
8.068
8.1
8.132
8.18
8.196
8.22
8.228
8.204
8.1
8.124
8.12
8.072
8.036
8.04
8.04
8.012
8.004
7.972
7.996
8
7.96
7.98
7.976
7.972
7.98
7.964
7.98
7.992
7.96
7.96
7.928
7.844
7.844
8.088
8.44
9.056
9.68
10.284
10.896
11.156
11.208
10.756
9.508
8.276
7.696
7.52
7.576
7.732
7.868
7.976
8.052
8.052
8.056
8.028
8.02
8.024
8.036
8.044
8.024
8.032
8.036
8.044
8.048
8.028
8.068
8.052
8.06
8.056
8.096
8.084
8.096
8.076
8.088
8.124
8.092
8.124
8.136
8.156
8.148
8.144
8.16
8.184
8.192
8.204
8.212
8.248
8.252
8.26
8.272
8.344
8.392
8.38
8.432
8.492
8.536
8.548
8.58
8.632
8.692
8.688
8.74
8.8
8.836
8.828
8.824
8.84
8.836
8.78
8.712
8.664
8.604
8.532
8.448
8.376
8.34
8.272
8.192
8.144
8.12
8.084
8.052
8.032
8.032
8.016
7.98
7.984
8
7.992
7.964
7.952
7.948
7.964
7.964
7.956
7.952
7.976
7.976
7.948
7.952
7.964
7.96
7.968
7.96
7.976
7.972
7.928
7.904
7.94
7.964
7.944
7.944
7.936
7.952
7.956
7.92
7.92
7.932
7.924
7.892
7.924
7.956
7.952
7.928
7.884
7.94
7.936
7.904
7.884
7.932
7.916
7.876
7.868
7.908
7.9
7.904
7.904
7.916
7.908
7.888
7.872
7.876
7.892
7.884
7.888
7.888
7.88
7.884
7.86
7.852
7.876
7.876
7.872
7.888
7.892
7.888
7.852
7.856
7.856
7.876
7.852
7.852
7.872
7.892
7.864
7.876
7.884
7.88
7.912
7.896
7.948
7.948
7.984
8.016
8.044
8.112
8.128
8.064
8.008
8
7.98
7.936
7.896
7.896
7.9
7.852
7.832
7.844
7.86
7.836
7.82
7.828
7.836
7.836
7.828
7.816
7.848
7.86
7.808
7.8
7.792
7.66
7.64
7.876
8.236
8.88
9.532
10.156
10.776
10.996
11
10.492
9.288
8.124
7.576
7.392
7.44
7.56
7.68
7.772
7.856
7.892
7.868
7.836
7.836
7.856
7.876
7.864
7.832
7.872
7.892
7.864
7.884
7.88
7.876
7.884
7.876
7.904
7.92
7.904
7.888
7.928
7.924
7.936
7.932
7.944
7.98
7.988
7.952
7.996
8.024
8.032
8.02
8.036
8.064
8.092
8.076
8.1
8.136
8.168
8.192
8.216
8.24
8.316
8.332
8.356
8.428
8.476
8.508
8.536
8.576
8.632
8.652
8.652
8.684
8.684
8.66
8.624
8.564
8.54
8.464
8.376
8.32
8.268
8.22
8.132
8.096
8.064
8.02
7.956
7.924
7.908
7.908
7.888
7.852
7.856
7.88
7.852
7.848
7.852
7.844
7.86
7.852
7.84
7.856
7.868
7.84
7.82
7.848
7.868
7.848
7.876
7.864
7.868
7.848
7.852
7.856
7.864
7.852
7.856
7.852
7.864
7.868
7.824
7.852
7.868
7.872
7.848
7.856
7.856
7.868
7.86
7.852
7.868
7.872
7.844
7.832
7.824
7.86
7.824
7.84
7.84
7.844
7.852
7.832
7.856
7.856
7.872
7.82
7.808
7.82
7.852
7.828
7.848
7.856
7.872
7.864
7.88
7.88
7.9
7.908
7.904
7.956
8.008
8.04
8.072
8.084
8.028
7.988
7.96
7.944
7.94
7.904
7.852
7.84
7.848
7.832
7.808
7.8
7.828
7.848
7.824
7.792
7.824
7.824
7.796
7.808
7.804
7.836
7.82
7.752
7.66
7.648
7.776
8.116
8.696
9.444
10.052
10.592
10.956
11.016
10.688
9.572
8.324
7.716
7.548
7.496
7.58
7.672
7.796
7.86
7.884
7.884
7.908
7.872
7.852
7.864
7.88
7.872
7.876
7.88
7.888
7.9
7.872
7.876
7.912
7.908
7.896
7.928
7.952
7.956
7.928
7.928
7.956
7.984
7.952
7.96
7.988
8.016
8
8.024
8.028
8.052
8.056
8.056
8.08
8.156
8.16
8.144
8.168
8.228
8.236
8.296
8.316
8.372
8.432
8.452
8.484
8.54
8.58
8.612
8.648
8.676
8.724
8.692
8.688
8.672
8.628
8.58
8.504
8.46
8.408
8.344
8.244
8.18
8.14
8.092
8.028
7.976
7.996
7.964
7.924
7.92
7.892
7.908
7.888
7.88
7.9
7.912
7.892
7.856
7.88
7.892
7.888
7.868
7.892
7.896
7.9
7.88
7.872
7.892
7.896
7.892
7.896
7.916
7.908
7.9
7.888
7.9
7.908
7.896
7.896
7.916
7.916
7.912
7.888
7.896
7.888
7.896
7.868
7.888
7.9
7.888
7.86
7.872
7.892
7.864
7.872
7.884
7.876
7.88
7.872
7.84
7.872
7.884
7.856
7.856
7.876
7.888
7.86
7.856
7.864
7.872
7.864
7.852
7.852
7.88
7.892
7.88
7.888
7.912
7.92
7.94
7.936
7.968
8.004
8.02
8.048
8.076
8.096
8.064
8.012
7.964
7.968
7.928
7.896
7.916
7.924
7.864
7.86
7.84
7.876
7.832
7.852
7.852
7.852
7.856
7.844
7.844
7.864
7.868
7.836
7.824
7.808
7.72
7.696
7.912
8.3
8.916
9.52
10.14
10.736
11.02
11.072
10.628
9.44
8.264
7.716
7.48
7.54
7.64
7.772
7.832
7.912
7.932
7.92
7.876
7.868
7.892
7.896
7.888
7.904
7.912
7.92
7.9
7.916
7.924
7.92
7.928
7.912
7.932
7.968
7.98
7.96
7.976
7.98
7.992
7.976
8.012
8.032
8.032
8.02
8.028
8.064
8.088
8.088
8.084
8.124
8.14
8.172
8.168
8.208
8.252
8.28
8.308
8.348
8.404
8.42
8.464
8.48
8.552
8.608
8.628
8.66
8.736
8.744
8.764
8.764
8.768
8.756
8.684
8.62
8.584
8.536
8.452
8.384
8.308
8.26
8.192
8.12
8.096
8.064
8.028
7.984
7.964
7.968
7.94
7.924
7.924
7.94
7.944
7.916
7.912
7.912
7.928
7.924
7.916
7.936
7.944
7.92
7.92
7.932
7.944
7.916
7.904
7.948
7.952
7.952
7.912
7.916
7.944
7.936
7.936
7.932
7.948
7.956
7.936
7.916
7.924
7.936
7.924
7.904
7.932
7.94
7.932
7.908
7.932
7.944
7.92
7.916
7.928
7.94
7.936
7.896
7.9
7.896
7.924
7.896
7.904
7.94
7.92
7.904
7.896
7.888
7.94
7.876
7.876
7.916
7.936
7.912
7.912
7.888
7.924
7.916
7.896
7.892
7.92
7.896
7.888
7.86
7.9
7.912
7.916
7.9
7.94
7.968
7.956
7.964
7.984
8.008
7.984
8.008
8.088
8.132
8.16
8.128
8.108
8.052
8.012
8
8.008
7.96
7.968
7.916
7.924
7.904
7.9
7.872
7.876
7.896
7.88
7.872
7.86
7.908
7.888
7.86
7.864
7.868
7.872
7.816
7.716
7.756
8.04
8.396
8.968
9.604
10.26
10.856
11.052
11.064
10.584
9.324
8.144
7.6
7.476
7.544
7.652
7.756
7.892
7.98
7.944
7.928
7.948
7.948
7.928
7.924
7.94
7.928
7.924
7.924
7.932
7.976
7.98
7.932
7.948
7.984
7.984
7.984
7.992
8
8.032
7.992
8.008
8.02
8.024
8.04
8.028
8.048
8.076
8.096
8.072
8.092
8.128
8.124
8.148
8.188
8.22
8.244
8.256
8.276
8.324
8.38
8.388
8.424
8.504
8.532
8.58
8.6
8.664
8.712
8.736
8.752
8.816
8.824
8.82
8.78
8.748
8.716
8.612
8.532
8.484
8.44
8.38
8.264
8.192
8.192
8.132
8.064
8.052
8.028
8.016
7.976
7.952
7.952
7.964
7.94
7.948
7.924
7.964
7.92
7.904
7.92
7.948
7.932
7.916
7.932
7.96
7.952
7.936
7.92
7.96
7.968
7.936
7.932
7.952
7.976
7.948
7.94
7.94
7.96
7.908
7.916
7.944
7.944
7.932
7.9
7.912
7.916
7.944
7.912
7.92
7.924
7.928
7.92
7.904
7.92
7.92
7.912
7.9
7.928
7.932
7.916
7.912
7.908
7.92
7.884
7.884
7.912
7.928
7.908
7.892
7.892
7.9
7.888
7.868
7.888
7.912
7.916
7.88
7.876
7.896
7.88
7.868
7.876
7.9
7.932
7.908
7.896
7.936
7.972
7.952
7.948
8.016
8.08
8.104
8.12
8.136
8.116
8.044
8.004
8.02
7.984
7.952
7.928
7.908
7.924
7.908
7.848
7.864
7.888
7.9
7.86
7.848
7.848
7.88
7.856
7.872
7.88
7.904
7.868
7.816
7.736
7.728
7.912
8.236
8.844
9.512
10.152
10.736
11.04
11.136
10.752
9.588
8.308
7.68
7.464
7.452
7.6
7.72
7.84
7.908
7.944
7.936
7.924
7.932
7.904
7.924
7.952
7.948
7.916
7.916
7.964
7.96
7.928
7.928
7.964
7.968
7.972
7.976
7.996
8.012
8.008
8
8.02
8.016
8.028
8.024
8.036
8.072
8.072
8.076
8.092
8.092
8.112
8.096
8.152
8.204
8.212
8.216
8.232
8.288
8.336
8.336
8.392
8.464
8.484
8.492
8.528
8.588
8.624
8.672
8.696
8.748
8.796
8.78
8.76
8.78
8.748
8.656
8.612
8.56
8.508
8.432
8.352
8.284
8.224
8.184
8.112
8.076
8.072
8.064
7.996
7.968
7.96
7.96
7.916
7.924
7.944
7.948
7.944
7.932
7.924
7.952
7.92
7.896
7.924
7.928
7.952
7.932
7.912
7.948
7.956
7.96
7.936
7.964
7.96
7.952
7.928
7.944
7.948
7.94
7.936
7.94
7.972
7.96
7.952
7.944
7.944
7.952
7.94
7.932
7.96
7.964
7.944
7.924
7.976
7.96
7.916
7.944
7.944
7.96
7.94
7.936
7.944
7.94
7.94
7.936
7.956
7.988
7.96
7.944
7.94
8
7.972
7.956
7.968
8.004
8.02
8.036
8.032
8.044
8.072
8.088
8.144
8.204
8.24
8.22
8.16
8.12
8.108
8.072
8.044
8.032
8.064
8.028
7.98
7.98
7.964
7.968
7.968
7.964
7.996
8.004
7.984
7.984
7.988
7.972
7.964
7.948
7.968
7.932
7.792
7.828
8.104
8.512
9.2
9.828
10.5
11.072
11.212
11.192
10.492
9.184
8.108
7.68
7.564
7.632
7.772
7.88
7.96
8.072
8.06
8.028
8.012
8.032
8.036
8.04
8.032
8.036
8.056
8.04
8.02
8.068
8.096
8.056
8.064
8.076
8.068
8.072
8.096
8.104
8.116
8.124
8.112
8.12
8.144
8.148
8.132
8.12
8.184
8.22
8.204
8.212
8.24
8.252
8.24
8.272
8.324
8.336
8.368
8.388
8.44
8.472
8.52
8.536
8.608
8.664
8.692
8.72
8.756
8.812
8.848
8.848
8.884
8.904
8.892
8.828
8.756
8.736
8.676
8.596
8.52
8.464
8.42
8.336
8.252
8.224
8.192
8.132
8.112
8.084
8.104
8.076
8.028
8.008
8.028
8.016
8.012
7.988
8.04
8.052
8.032
8.004
8.008
8.024
8.008
8.008
8.032
8.064
8.036
8.016
8.012
8.044
8.036
8.016
8.024
8.04
8.024
8.028
7.996
8.04
8.008
8.02
8.008
8.024
8.04
8.016
8.016
8.016
8.02
8.008
8.008
8.008
8.02
8.016
8
8
8.02
7.992
7.98
7.996
7.996
7.996
7.988
7.98
7.98
8
7.984
7.988
8
8.02
8.012
7.98
8.008
8.016
8.016
8.036
8.072
8.08
8.076
8.076
8.14
8.184
8.216
8.184
8.164
8.124
8.1
8.064
8.024
8.028
8.032
7.996
7.96
7.968
7.948
7.94
7.936
7.932
7.948
7.948
7.916
7.936
7.952
7.964
7.932
7.944
7.94
7.9
7.772
7.78
7.98
8.332
8.868
9.544
10.16
10.812
11.136
11.176
10.88
9.708
8.376
7.704
7.488
7.516
7.628
7.752
7.908
8.02
7.996
7.98
7.98
7.984
7.952
7.956
7.972
7.992
7.98
7.988
7.988
7.996
8.008
7.996
7.992
8.032
8.048
8.028
8.028
8.032
8.06
8.044
8.052
8.068
8.08
8.08
8.072
8.084
8.116
8.12
8.124
8.136
8.18
8.2
8.172
8.208
8.236
8.276
8.268
8.312
8.38
8.424
8.432
8.472
8.508
8.58
8.608
8.628
8.684
8.76
8.76
8.792
8.8
8.844
8.828
8.776
8.772
8.712
8.652
8.568
8.488
8.424
8.376
8.292
8.22
8.18
8.156
8.084
8.048
8.028
8.032
7.988
7.948
7.968
7.992
7.972
7.948
7.956
7.952
7.94
7.928
7.932
7.976
7.972
7.956
7.956
7.956
7.948
7.948
7.944
7.976
7.984
7.968
7.956
7.972
7.964
7.944
7.952
7.964
7.976
7.972
7.94
7.948
7.972
7.952
7.92
7.956
7.972
7.96
7.928
7.928
7.952
7.944
7.928
7.928
7.932
7.932
7.92
7.896
7.928
7.936
7.924
7.888
7.92
7.928
7.92
7.888
7.92
7.94
7.92
7.92
7.912
7.976
7.972
7.968
7.996
7.984
8.024
8.064
8.096
8.164
8.188
8.16
8.076
8.048
8.064
8.02
7.964
7.976
7.976
7.96
7.908
7.872
7.904
7.896
7.876
7.884
7.896
7.908
7.872
7.876
7.896
7.888
7.872
7.872
7.872
7.84
7.728
7.728
7.976
8.336
8.956
9.608
10.268
10.872
11.116
11.128
10.628
9.348
8.128
7.568
7.384
7.472
7.604
7.708
7.812
7.924
7.924
7.896
7.892
7.908
7.912
7.908
7.908
7.912
7.932
7.896
7.92
7.92
7.936
7.936
7.932
7.936
7.96
7.976
7.944
7.968
7.984
8.004
7.964
8.004
8.016
8.032
8.012
8.028
8.072
8.076
8.072
8.08
8.1
8.104
8.14
8.14
8.192
8.212
8.252
8.256
8.296
8.36
8.396
8.412
8.456
8.54
8.572
8.584
8.64
8.672
8.712
8.712
8.748
8.768
8.768
8.728
8.66
8.624
8.572
8.5
8.424
8.364
8.32
8.236
8.168
8.108
8.072
8.02
8.016
7.972
7.98
7.948
7.916
7.912
7.924
7.92
7.888
7.892
7.908
7.928
7.892
7.88
7.896
7.9
7.884
7.892
7.92
7.92
7.916
7.896
7.888
7.916
7.912
7.876
7.9
7.92
7.932
7.908
7.892
7.912
7.928
7.896
7.896
7.912
7.932
7.912
7.912
7.916
7.904
7.9
7.896
7.884
7.932
7.896
7.884
7.888
7.9
7.888
7.864
7.86
7.9
7.912
7.888
7.88
7.9
7.92
7.9
7.924
7.98
7.98
7.968
7.992
8.044
8.096
8.104
8.092
8.064
8.036
8.012
7.972
7.944
7.924
7.912
7.888
7.884
7.852
7.86
7.832
7.844
7.856
7.86
7.836
7.844
7.86
7.832
7.84
7.844
7.844
7.864
7.804
7.72
7.672
7.692
7.968
8.388
9.096
9.784
10.428
10.952
11.064
11.02
10.276
8.916
7.872
7.524
7.384
7.448
7.56
7.716
7.82
7.9
7.864
7.872
7.872
7.856
7.844
7.896
7.9
7.872
7.876
7.868
7.912
7.9
7.892
7.904
7.924
7.928
7.896
7.9
7.948
7.936
7.944
7.94
7.956
8
7.972
7.968
8.012
8.032
8.004
8.016
8.056
8.092
8.08
8.08
8.112
8.132
8.156
8.188
8.224
8.272
8.304
8.328
8.356
8.408
8.464
8.48
8.528
8.58
8.616
8.644
8.672
8.708
8.728
8.704
8.676
8.672
8.636
8.568
8.476
8.408
8.36
8.304
8.24
8.188
8.14
8.096
8.036
7.992
7.992
7.96
7.932
7.92
7.928
7.936
7.904
7.9
7.904
7.916
7.892
7.884
7.9
7.936
7.916
7.888
7.908
7.912
7.908
7.888
7.932
7.928
7.94
7.908
7.932
7.94
7.956
7.924
7.932
7.94
7.944
7.932
7.936
7.932
7.948
7.924
7.912
7.932
7.932
7.952
7.92
7.916
7.932
7.928
7.912
7.908
7.928
7.944
7.904
7.9
7.904
7.924
7.908
7.916
7.916
7.944
7.92
7.908
7.924
7.96
7.96
7.96
7.992
8.036
8.004
8.008
8.06
8.132
8.156
8.136
8.132
8.1
8.048
8.036
8
7.984
7.992
7.948
7.936
7.928
7.912
7.916
7.88
7.892
7.904
7.888
7.888
7.892
7.924
7.872
7.888
7.904
7.872
7.88
7.824
7.724
7.796
8.028
8.404
9.016
9.648
10.312
10.888
11.096
11.184
10.632
9.32
8.108
7.632
7.456
7.512
7.628
7.792
7.92
8
7.964
7.948
7.94
7.948
7.92
7.94
7.972
7.976
7.932
7.94
7.972
7.964
7.956
7.952
7.988
8
7.992
7.972
8.008
8.02
8.012
8.032
8.02
8.044
8.072
8.06
8.052
8.088
8.084
8.072
8.12
8.16
8.168
8.148
8.168
8.184
8.236
8.248
8.264
8.316
8.356
8.38
8.42
8.444
8.508
8.548
8.572
8.648
8.708
8.736
8.744
8.76
8.788
8.8
8.748
8.74
8.72
8.652
8.556
8.48
8.448
8.352
8.284
8.228
8.2
8.164
8.096
8.064
8.032
8.028
7.988
7.956
7.964
7.984
7.96
7.944
7.952
7.98
7.948
7.92
7.928
7.968
7.964
7.952
7.948
7.964
7.952
7.948
7.952
7.98
7.996
7.964
7.948
7.968
7.956
7.944
7.936
7.948
7.96
7.952
7.932
7.932
7.972
7.96
7.944
7.936
7.964
7.972
7.948
7.936
7.952
7.972
7.924
7.912
7.96
7.96
7.96
7.936
7.936
7.924
7.904
7.92
7.94
7.936
7.956
7.912
7.924
7.94
7.92
7.908
7.924
7.944
7.952
7.944
7.932
7.976
7.992
8
8.004
8.012
8.04
8.056
8.12
8.152
8.176
8.168
8.116
8.052
8.056
8.048
7.992
7.952
7.968
7.952
7.936
7.928
7.916
7.936
7.884
7.924
7.912
7.908
7.912
7.88
7.908
7.908
7.904
7.892
7.904
7.872
7.736
7.736
7.968
8.324
8.88
9.516
10.14
10.812
11.112
11.156
10.808
9.628
8.352
7.668
7.432
7.472
7.636
7.74
7.864
7.976
7.992
7.952
7.912
7.924
7.952
7.948
7.932
7.964
7.96
7.952
7.968
7.96
7.996
7.984
7.984
7.996
8.016
8.028
7.988
7.992
8.036
8.032
8.024
8.012
8.06
8.08
8.076
8.08
8.096
8.112
8.136
8.148
8.176
8.204
8.204
8.216
8.228
8.288
8.296
8.32
8.368
8.428
8.46
8.48
8.5
8.556
8.608
8.62
8.664
8.748
8.78
8.796
8.788
8.828
8.82
8.788
8.744
8.704
8.636
8.576
8.48
8.428
8.372
8.324
8.236
8.188
8.172
8.132
8.068
8.032
8.004
8.024
7.964
7.988
8
7.996
7.984
7.956
7.976
7.968
7.976
7.96
7.98
8.02
7.968
7.976
7.976
7.996
7.968
7.976
7.984
7.996
8.008
8.008
7.988
8.004
7.992
7.968
7.972
7.98
7.996
7.972
7.98
7.972
7.992
7.948
7.952
7.992
8.004
7.968
7.956
7.948
7.988
7.964
7.952
7.948
7.98
7.976
7.944
7.96
7.956
7.968
7.96
7.932
7.956
7.976
7.96
7.932
7.94
7.94
7.94
7.936
7.932
7.972
7.972
7.936
7.944
7.98
7.968
7.964
8.008
8.024
8.016
8.04
8.104
8.14
8.196
8.184
8.176
8.128
8.096
8.068
8.012
8
8.004
7.988
7.944
7.92
7.956
7.932
7.912
7.904
7.928
7.92
7.912
7.9
7.948
7.948
7.908
7.916
7.936
7.924
7.816
7.736
7.824
8.088
8.488
9.152
9.82
10.484
11.008
11.116
11.112
10.36
9.02
7.972
7.564
7.456
7.52
7.652
7.772
7.904
7.988
7.956
7.944
7.944
7.956
7.928
7.924
7.968
7.964
7.944
7.928
7.96
7.98
7.944
7.96
8
8.004
7.976
7.992
7.988
8.012
8.008
8.004
8.008
8.02
8.052
8.048
8.048
8.08
8.088
8.052
8.076
8.096
8.124
8.152
8.144
8.18
8.212
8.216
8.252
8.272
8.328
8.376
8.384
8.436
8.476
8.5
8.544
8.596
8.64
8.692
8.704
8.74
8.756
8.748
8.724
8.7
8.66
8.632
8.56
8.464
8.408
8.356
8.292
8.208
8.18
8.152
8.068
8.028
7.996
7.98
7.972
7.928
7.928
7.94
7.928
7.9
7.896
7.908
7.924
7.9
7.884
7.912
7.912
7.9
7.884
7.916
7.92
7.908
7.892
7.916
7.92
7.936
7.92
7.892
7.908
7.908
7.912
7.924
7.916
7.936
7.896
7.892
7.908
7.932
7.876
7.884
7.908
7.924
7.904
7.904
7.908
7.912
7.888
7.876
7.872
7.904
7.888
7.872
7.876
7.888
7.904
7.88
7.896
7.904
7.9
7.864
7.884
7.908
7.916
7.892
7.896
7.956
7.992
7.968
7.944
7.972
8.048
8.072
8.104
8.136
8.14
8.064
8.02
8.004
8.008
7.964
7.924
7.932
7.924
7.9
7.872
7.844
7.872
7.872
7.844
7.872
7.864
7.88
7.852
7.864
7.868
7.88
7.864
7.844
7.808
7.728
7.68
7.872
8.224
8.88
9.584
10.192
10.796
11.08
11.096
10.612
9.4
8.216
7.668
7.492
7.48
7.624
7.732
7.828
7.92
7.928
7.956
7.888
7.896
7.924
7.952
7.944
7.936
7.924
7.944
7.936
7.928
7.94
7.98
7.972
7.968
7.96
7.992
7.972
7.98
7.972
8.024
8.032
8.024
8.032
8.04
8.06
8.068
8.08
8.092
8.104
8.124
8.148
8.14
8.192
8.204
8.196
8.232
8.288
8.304
8.344
8.348
8.408
8.46
8.468
8.508
8.56
8.636
8.636
8.676
8.708
8.752
8.76
8.748
8.756
8.732
8.7
8.628
8.584
8.516
8.452
8.348
8.3
8.26
8.188
8.144
8.08
8.076
8.06
8.02
8.012
7.996
8.008
7.988
7.972
7.972
7.96
7.936
7.944
7.968
7.98
7.984
7.96
7.976
7.968
7.968
7.96
7.976
7.996
7.992
7.988
7.968
7.972
7.976
7.952
7.94
7.976
8.004
7.968
7.976
7.948
7.996
7.964
7.96
7.988
7.988
7.992
7.972
7.944
7.976
7.968
7.944
7.944
7.956
7.952
7.928
7.932
7.976
7.948
7.92
7.924
7.96
7.964
7.936
7.928
7.928
7.924
7.924
7.92
7.912
7.944
7.928
7.924
7.944
7.96
7.944
7.944
7.988
7.988
8.02
7.996
8.032
8.092
8.16
8.144
8.156
8.116
8.068
8.04
8.024
8
7.984
7.976
7.948
7.96
7.916
7.904
7.88
7.888
7.912
7.896
7.868
7.88
7.888
7.912
7.884
7.88
7.892
7.904
7.844
7.744
7.748
7.976
8.248
8.796
9.448
10.076
10.668
11.028
11.14
10.88
9.76
8.42
7.736
7.476
7.496
7.612
7.728
7.856
7.98
7.972
7.94
7.936
7.936
7.928
7.928
7.94
7.96
7.92
7.936
7.948
7.96
7.956
7.944
7.964
8.004
7.96
7.972
7.988
8.008
8.008
8
8.016
8.04
8.024
8.04
8.048
8.06
8.08
8.072
8.088
8.116
8.144
8.152
8.168
8.188
8.212
8.232
8.228
8.292
8.336
8.34
8.4
8.448
8.5
8.524
8.564
8.612
8.668
8.72
8.712
8.756
8.772
8.792
8.756
8.74
8.732
8.696
8.612
8.524
8.472
8.404
8.336
8.252
8.224
8.192
8.116
8.06
8.048
8.008
8
7.976
7.952
7.964
7.964
7.948
7.908
7.948
7.94
7.912
7.908
7.972
7.968
7.952
7.96
7.948
7.96
7.944
7.948
7.956
7.968
7.96
7.936
7.948
7.964
7.956
7.936
7.952
7.98
7.984
7.956
7.944
7.952
7.98
7.948
7.944
7.952
7.964
7.94
7.944
7.952
7.964
7.944
7.948
7.948
7.972
7.96
7.94
7.92
7.948
7.948
7.912
7.944
7.932
7.972
7.932
7.916
7.948
7.956
7.928
7.916
7.936
7.928
7.936
7.932
7.944
7.948
7.928
7.92
7.956
7.948
7.976
7.94
7.98
8.004
8.012
8
8.02
8.072
8.164
8.176
8.18
8.172
8.104
8.044
8.036
8.02
8.016
7.984
7.964
7.944
7.948
7.908
7.892
7.916
7.916
7.928
7.888
7.9
7.904
7.9
7.892
7.904
7.904
7.916
7.888
7.816
7.744
7.812
8.052
8.452
9.116
9.764
10.38
10.96
11.132
11.116
10.464
9.124
8.04
7.62
7.452
7.52
7.66
7.812
7.92
7.944
7.94
7.944
7.948
7.928
7.936
7.956
7.98
7.952
7.94
7.992
8
7.964
7.972
7.988
8.012
7.992
8
7.996
8.036
8.04
8.008
8.012
8.032
8.048
8.012
8.06
8.084
8.084
8.076
8.08
8.148
8.16
8.156
8.184
8.208
8.264
8.248
8.256
8.308
8.328
8.352
8.38
8.456
8.488
8.516
8.54
8.6
8.64
8.68
8.692
8.74
8.804
8.82
8.816
8.8
8.792
8.74
8.68
8.616
8.568
8.52
8.416
8.356
8.312
8.256
8.188
8.148
8.12
8.088
8.06
8.02
8.02
8.024
8.008
7.984
7.944
7.996
7.976
7.948
7.94
7.964
7.968
7.96
7.94
7.964
7.988
7.952
7.952
7.964
7.968
7.952
7.956
7.972
7.984
7.996
7.956
7.984
7.984
7.964
7.948
7.964
7.944
7.968
7.96
7.964
7.936
7.98
7.936
7.94
7.968
7.976
7.92
7.932
7.928
7.968
7.916
7.924
7.92
7.952
7.928
7.924
7.924
7.904
7.936
7.908
7.932
7.964
7.976
7.948
7.952
7.98
7.972
7.972
7.984
8.028
8.076
8.096
8.14
8.156
8.176
8.12
8.064
8.048
8.052
7.972
7.94
7.944
7.94
7.9
7.912
7.904
7.916
7.908
7.9
7.884
7.904
7.892
7.876
7.876
7.884
7.92
7.892
7.884
7.86
7.74
7.664
7.756
8.08
8.616
9.404
9.988
10.612
11.024
11.048
10.804
9.78
8.512
7.824
7.584
7.528
7.592
7.74
7.792
7.868
7.952
7.972
7.92
7.92
7.9
7.916
7.924
7.9
7.948
7.928
7.932
7.904
7.936
7.964
7.948
7.936
7.944
7.992
7.98
7.988
7.968
7.96
8
8.012
7.996
8.02
8.068
8.04
8.036
8.06
8.072
8.08
8.072
8.108
8.152
8.164
8.144
8.176
8.236
8.256
8.26
8.308
8.376
8.38
8.4
8.448
8.512
8.568
8.564
8.588
8.656
8.7
8.688
8.692
8.724
8.696
8.632
8.596
8.532
8.476
8.444
8.352
8.3
8.252
8.18
8.124
8.076
8.064
8.06
7.992
7.96
7.988
7.964
7.964
7.936
7.968
7.976
7.952
7.932
7.928
7.944
7.924
7.94
7.948
7.98
7.948
7.956
7.96
7.96
7.98
7.968
7.972
8.012
8.004
7.988
7.976
7.992
7.996
7.984
7.988
8.024
8.044
7.988
7.992
8.008
8.016
8.004
7.976
8.004
8.024
8.008
8.008
8.016
8.008
8.008
7.988
8.008
8.012
8.036
8.032
8.024
8.036
8.064
8.052
8.08
8.112
8.136
8.152
8.184
8.252
8.252
8.228
8.156
8.136
8.128
8.132
8.052
8.056
8.076
8.052
7.996
7.992
8
8.004
7.984
7.964
7.992
7.976
7.972
7.976
7.968
8.008
7.988
7.968
7.964
7.944
7.852
7.8
7.968
8.304
8.864
9.484
10.136
10.756
11.124
11.18
10.936
9.92
8.628
7.956
7.708
7.688
7.796
7.872
7.94
8.048
8.048
8.016
8.016
8.004
8.012
8.008
8.016
8.028
8.044
8.028
8.036
8
8.036
8.04
8.036
8.044
8.08
8.08
8.04
8.04
8.068
8.08
8.068
8.068
8.108
8.104
8.08
8.096
8.116
8.1
8.132
8.116
8.132
8.172
8.208
8.2
8.232
8.284
8.284
8.308
8.348
8.408
8.444
8.468
8.484
8.548
8.584
8.616
8.656
8.728
8.76
8.768
8.768
8.768
8.764
8.712
8.688
8.64
8.608
8.54
8.452
8.372
8.328
8.272
8.204
8.18
8.132
8.132
8.072
8.044
8.012
8.032
8.008
7.992
7.996
8.016
7.992
7.992
8
7.964
7.988
7.976
7.972
8.008
8.004
7.98
7.984
7.992
7.988
7.996
7.956
8.008
8.016
7.96
7.964
7.98
7.984
7.944
7.952
7.972
7.988
7.956
7.932
7.944
7.944
7.948
7.94
7.98
8.004
7.94
7.944
7.908
7.944
7.932
7.94
7.952
8.004
8.024
8.004
8.02
8.052
8.056
8.052
8.072
8.12
8.18
8.172
8.156
8.148
8.076
8.016
8.008
8.032
8.036
8.028
8.004
7.992
7.956
7.964
7.956
7.972
7.996
7.984
7.992
7.944
7.992
7.988
7.956
7.968
7.992
8.012
7.976
7.856
7.8
7.92
8.232
8.712
9.384
10.024
10.62
11.08
11.176
11.08
10.212
8.872
8.08
7.796
7.732
7.792
7.868
7.964
8.072
8.076
8.052
8.04
8.064
8.024
8.04
8.04
8.048
8.032
8.056
8.072
8.064
8.084
8.06
8.08
8.08
8.088
8.068
8.088
8.132
8.124
8.136
8.124
8.152
8.132
8.124
8.152
8.184
8.196
8.168
8.196
8.208
8.232
8.216
8.244
8.292
8.3
8.304
8.316
8.384
8.4
8.424
8.456
8.512
8.552
8.596
8.64
8.66
8.712
8.772
8.764
8.788
8.816
8.824
8.804
8.776
8.756
8.688
8.596
8.548
8.484
8.448
8.356
8.296
8.224
8.188
8.144
8.124
8.108
8.108
8.096
8.04
8.032
8.044
8.028
8.024
7.996
8.044
8.032
8.004
7.984
8.032
8.06
8.032
8.016
8.024
8.052
8.032
8.024
8.024
8.032
8.04
8.016
8.048
8.052
8.052
8.04
8.036
8.036
8.052
8.036
8.012
8.056
8.052
8.044
8.024
8.032
8.028
8.056
8.04
8.052
8.088
8.1
8.068
8.104
8.108
8.116
8.136
8.168
8.232
8.276
8.264
8.236
8.212
8.172
8.144
8.12
8.124
8.088
8.072
8.052
8.024
8.016
8
7.976
8.008
8.024
7.988
7.984
7.996
8.004
8
7.984
7.992
8.004
7.992
7.956
7.864
7.792
7.948
8.22
8.748
9.436
10.08
10.692
11.104
11.184
11.048
10.076
8.768
8.004
7.74
7.676
7.744
7.828
7.924
8.032
8.04
8.04
8.04
8.032
8.028
8
8.036
8.024
8.012
8
8.036
8.052
8.04
8.02
8.044
8.076
8.064
8.044
8.08
8.096
8.084
8.084
8.076
8.096
8.12
8.092
8.104
8.136
8.152
8.16
8.152
8.192
8.2
8.2
8.212
8.26
8.296
8.284
8.3
8.348
8.4
8.42
8.444
8.504
8.54
8.572
8.604
8.644
8.68
8.72
8.752
8.752
8.804
8.808
8.744
8.728
8.676
8.608
8.556
8.48
8.456
8.372
8.312
8.224
8.196
8.156
8.12
8.076
8.064
8.06
8.036
8.004
7.996
8.004
7.976
7.96
7.964
8.004
7.988
7.972
7.976
7.968
7.992
7.976
7.98
8
8.004
7.988
7.968
7.98
7.988
7.952
7.984
7.98
8.016
7.976
7.968
7.976
7.992
7.984
7.952
7.972
7.964
7.988
7.96
7.988
7.988
8.02
8.032
8.032
8.052
8.068
8.08
8.1
8.18
8.208
8.228
8.208
8.2
8.128
8.096
8.064
8.04
8.028
8.02
8.012
7.988
7.956
7.94
7.928
7.912
7.94
7.936
7.92
7.908
7.928
7.952
7.924
7.912
7.912
7.94
7.908
7.868
7.8
7.768
7.98
8.288
8.872
9.532
10.164
10.772
11.076
11.136
10.82
9.648
8.328
7.716
7.5
7.516
7.644
7.78
7.904
7.956
7.952
7.968
7.952
7.92
7.932
7.936
7.948
7.948
7.936
7.956
7.96
7.972
7.936
7.96
7.976
8.004
7.964
7.988
7.996
7.988
7.992
8.012
8.056
8.06
8.036
8.028
8.068
8.072
8.084
8.092
8.116
8.12
8.14
8.144
8.164
8.2
8.228
8.24
8.276
8.324
8.372
8.376
8.4
8.448
8.508
8.524
8.568
8.624
8.664
8.688
8.708
8.728
8.76
8.728
8.688
8.664
8.628
8.552
8.484
8.392
8.344
8.292
8.208
8.148
8.12
8.108
8.048
8
7.992
7.972
7.94
7.916
7.956
7.948
7.916
7.908
7.924
7.928
7.884
7.92
7.912
7.932
7.916
7.912
7.908
7.936
7.92
7.912
7.904
7.924
7.936
7.916
7.912
7.936
7.94
7.912
7.892
7.932
7.932
7.888
7.888
7.92
7.924
7.912
7.912
7.936
7.94
7.92
7.948
7.96
8.008
7.992
7.964
7.992
8.052
8.072
8.112
8.152
8.132
8.112
8.048
8.012
8.024
8.008
7.944
7.916
7.92
7.916
7.88
7.84
7.86
7.856
7.856
7.836
7.848
7.84
7.852
7.836
7.836
7.86
7.836
7.84
7.836
7.808
7.76
7.668
7.74
8.068
8.512
9.168
9.776
10.432
10.98
11.076
11.008
10.236
8.864
7.84
7.436
7.36
7.484
7.636
7.744
7.84
7.948
7.916
7.888
7.856
7.904
7.904
7.884
7.868
7.896
7.904
7.9
7.904
7.896
7.928
7.924
7.916
7.948
7.968
7.956
7.956
7.952
7.988
7.956
7.96
7.984
8.004
8.012
8.016
7.996
8.032
8.06
8.04
8.06
8.116
8.132
8.12
8.148
8.172
8.204
8.236
8.26
8.312
8.356
8.4
8.388
8.456
8.5
8.528
8.584
8.608
8.66
8.668
8.676
8.656
8.656
8.64
8.572
8.52
8.484
8.4
8.34
8.252
8.22
8.156
8.104
8.04
8.032
8
7.96
7.928
7.928
7.912
7.904
7.88
7.884
7.892
7.912
7.88
7.848
7.876
7.9
7.876
7.892
7.872
7.904
7.896
7.876
7.912
7.9
7.884
7.868
7.896
7.916
7.896
7.852
7.896
7.876
7.888
7.872
7.872
7.872
7.884
7.856
7.852
7.88
7.884
7.84
7.844
7.876
7.864
7.828
7.828
7.848
7.864
7.816
7.812
7.828
7.836
7.828
7.812
7.812
7.852
7.86
7.844
7.852
7.884
7.916
7.892
7.888
7.892
7.936
7.976
8.02
8.056
8.072
8.028
7.932
7.916
7.936
7.904
7.868
7.86
7.868
7.832
7.784
7.78
7.796
7.78
7.776
7.764
7.776
7.764
7.768
7.744
7.788
7.772
7.76
7.74
7.768
7.748
7.648
7.58
7.756
8.108
8.612
9.256
9.896
10.564
10.94
10.976
10.76
9.676
8.348
7.576
7.308
7.316
7.472
7.56
7.668
7.812
7.832
7.792
7.792
7.792
7.828
7.808
7.792
7.816
7.816
7.808
7.832
7.844
7.868
7.828
7.824
7.848
7.844
7.86
7.86
7.872
7.88
7.9
7.892
7.892
7.916
7.928
7.896
7.92
7.94
7.972
7.968
7.952
7.984
8.016
8.04
8.056
8.104
8.128
8.128
8.172
8.18
8.22
8.264
8.284
8.352
8.4
8.444
8.448
8.492
8.544
8.564
8.584
8.616
8.616
8.628
8.56
8.52
8.472
8.428
8.34
8.3
8.228
8.192
8.12
8.068
8.024
7.988
7.952
7.904
7.908
7.908
7.864
7.86
7.84
7.848
7.84
7.796
7.804
7.84
7.848
7.812
7.8
7.816
7.82
7.824
7.82
7.816
7.836
7.832
7.816
7.832
7.832
7.824
7.812
7.82
7.84
7.856
7.836
7.816
7.832
7.844
7.812
7.82
7.852
7.856
7.844
7.808
7.824
7.828
7.804
7.82
7.832
7.84
7.82
7.804
7.804
7.804
7.812
7.792
7.812
7.836
7.824
7.792
7.772
7.792
7.804
7.772
7.812
7.824
7.808
7.8
7.792
7.796
7.804
7.804
7.816
7.844
7.86
7.864
7.848
7.86
7.872
7.912
7.96
8.008
8.06
8.052
8.004
7.936
7.924
7.912
7.86
7.828
7.844
7.844
7.792
7.772
7.784
7.796
7.772
7.768
7.796
7.804
7.772
7.764
7.784
7.812
7.784
7.756
7.788
7.788
7.688
7.568
7.648
7.952
8.388
9.072
9.696
10.38
10.868
10.932
10.848
10.064
8.74
7.78
7.46
7.38
7.472
7.58
7.676
7.784
7.864
7.832
7.832
7.816
7.848
7.836
7.84
7.84
7.848
7.852
7.832
7.828
7.88
7.888
7.876
7.864
7.868
7.892
7.876
7.912
7.892
7.952
7.916
7.932
7.928
7.956
7.948
7.964
7.976
7.984
8.024
7.992
8.028
8.036
8.072
8.064
8.092
8.14
8.168
8.18
8.188
8.256
8.284
8.316
8.344
8.392
8.46
8.472
8.484
8.544
8.584
8.612
8.62
8.64
8.652
8.624
8.564
8.54
8.496
8.452
8.36
8.308
8.256
8.196
8.124
8.084
8.056
8.032
7.98
7.96
7.936
7.956
7.892
7.896
7.88
7.888
7.876
7.884
7.88
7.88
7.908
7.88
7.876
7.904
7.9
7.876
7.884
7.896
7.904
7.876
7.88
7.888
7.904
7.9
7.892
7.912
7.908
7.884
7.888
7.896
7.892
7.888
7.868
7.88
7.892
7.892
7.88
7.872
7.9
7.888
7.852
7.876
7.9
7.88
7.856
7.86
7.852
7.872
7.852
7.844
7.848
7.88
7.832
7.84
7.828
7.852
7.84
7.836
7.844
7.876
7.852
7.844
7.836
7.856
7.856
7.824
7.776
7.844
7.856
7.824
7.824
7.848
7.84
7.812
7.84
7.868
7.864
7.876
7.868
7.872
7.912
7.928
7.904
7.936
8.02
8.072
8.072
8.036
8.064
7.984
7.932
7.92
7.932
7.904
7.868
7.852
7.864
7.832
7.808
7.792
7.816
7.82
7.796
7.78
7.792
7.824
7.804
7.792
7.82
7.808
7.824
7.76
7.68
7.668
7.864
8.144
8.628
9.268
9.88
10.448
10.856
10.98
10.788
9.74
8.404
7.664
7.396
7.396
7.532
7.66
7.78
7.844
7.832
7.828
7.824
7.84
7.824
7.792
7.836
7.852
7.832
7.844
7.864
7.864
7.848
7.844
7.864
7.88
7.848
7.86
7.892
7.908
7.884
7.88
7.924
7.936
7.916
7.944
7.952
7.984
7.98
7.968
7.964
8.02
8.028
8.044
8.06
8.088
8.136
8.14
8.132
8.188
8.24
8.268
8.28
8.332
8.388
8.412
8.436
8.492
8.54
8.576
8.584
8.632
8.672
8.7
8.672
8.644
8.628
8.584
8.504
8.444
8.404
8.324
8.236
8.176
8.136
8.092
8.052
7.996
7.984
7.98
7.924
7.88
7.856
7.892
7.86
7.824
7.848
7.884
7.864
7.832
7.856
7.86
7.88
7.852
7.876
7.86
7.884
7.856
7.852
7.884
7.884
7.876
7.872
7.908
7.904
7.884
7.864
7.884
7.892
7.884
7.868
7.864
7.896
7.876
7.848
7.864
7.884
7.888
7.864
7.876
7.892
7.904
7.872
7.86
7.852
7.896
7.868
7.88
7.892
7.888
7.868
7.872
7.864
7.896
7.86
7.88
7.852
7.888
7.876
7.872
7.852
7.864
7.884
7.876
7.852
7.884
7.896
7.864
7.868
7.844
7.864
7.868
7.872
7.864
7.88
7.88
7.86
7.872
7.864
7.884
7.86
7.864
7.872
7.88
7.864
7.84
7.852
7.864
7.832
7.844
7.88
7.872
7.86
7.864
7.872
7.88
7.884
7.892
7.92
7.964
7.94
7.92
7.96
8.032
8.084
8.096
8.088
8.1
8.032
7.976
7.956
7.968
7.94
7.916
7.912
7.916
7.896
7.848
7.86
7.88
7.872
7.868
7.88
7.876
7.908
7.9
7.872
7.888
7.9
7.912
7.832
7.756
7.824
8.06
8.412
9.016
9.628
10.26
10.824
11.024
11.124
10.616
9.284
8.092
7.596
7.456
7.544
7.672
7.824
7.968
8.016
8
7.968
7.964
7.992
7.968
7.984
7.996
8
7.98
7.972
7.996
8
8.02
8.008
8.032
8.048
8.012
8.024
8.048
8.056
8.032
8.036
8.068
8.096
8.084
8.084
8.084
8.132
8.104
8.128
8.156
8.168
8.18
8.196
8.184
8.228
8.272
8.284
8.288
8.344
8.404
8.416
8.44
8.5
8.54
8.576
8.6
8.652
8.696
8.728
8.756
8.796
8.804
8.824
8.816
8.828
8.784
8.724
8.656
8.592
8.532
8.48
8.4
8.352
8.324
8.248
8.196
8.144
8.12
8.1
8.072
8.028
8.048
8.044
8.012
7.996
8.004
8.012
7.996
8.008
7.996
8.016
8.008
7.976
8.008
8.02
8.016
7.992
8
8.02
8.032
8.004
8.004
8
8.02
8.004
8.004
7.996
8.024
8.012
8.016
8.012
8.008
7.98
7.984
7.972
8.012
8.012
7.988
8
8.004
8.004
7.972
7.988
8
8.004
7.964
7.976
7.972
7.996
7.984
7.98
7.972
8.004
7.988
7.98
7.952
7.996
7.972
7.98
7.956
7.988
7.98
7.956
7.968
7.952
7.984
7.944
7.944
7.968
7.984
7.944
7.948
7.952
7.984
7.972
7.968
7.96
7.98
7.964
7.956
7.948
7.972
7.976
7.96
7.964
7.992
7.968
7.944
7.908
7.964
7.952
7.956
7.972
7.992
7.984
7.96
7.948
7.952
7.956
7.936
7.944
7.968
7.964
7.968
7.968
7.992
8.016
8.024
8.04
8.1
8.144
8.176
8.164
8.176
8.144
8.108
8.076
8.072
8.028
8.02
7.984
7.956
7.96
7.948
7.94
7.916
7.952
7.96
7.916
7.916
7.924
7.928
7.948
7.916
7.94
7.984
7.888
7.76
7.748
7.976
8.328
8.904
9.58
10.244
10.844
11.084
11.112
10.692
9.512
8.276
7.68
7.504
7.552
7.648
7.744
7.908
8.024
8.008
7.992
7.984
8.012
8.004
7.988
7.98
7.984
8.016
7.964
7.98
8.012
8.012
7.972
7.996
8.02
8.02
8.016
8.024
8.052
8.048
8.028
8.02
8.052
8.04
8.084
8.072
8.1
8.132
8.116
8.108
8.132
8.172
8.176
8.18
8.188
8.256
8.26
8.26
8.284
8.328
8.352
8.404
8.444
8.468
8.532
8.564
8.572
8.62
8.692
8.724
8.736
8.74
8.784
8.792
8.756
8.72
8.704
8.648
8.584
8.532
8.496
8.428
8.328
8.288
8.24
8.188
8.136
8.092
8.068
8.064
8.012
7.972
8.004
7.988
7.98
7.968
7.94
7.98
7.976
7.944
7.944
7.952
7.956
7.956
7.952
7.984
7.988
7.952
7.956
7.98
7.98
7.98
7.972
7.988
7.996
7.972
7.96
7.972
7.976
7.984
7.96
7.964
7.988
7.968
7.948
7.924
7.952
7.96
7.944
7.94
7.964
7.98
7.916
7.936
7.96
7.948
7.916
7.912
7.948
7.96
7.94
7.916
7.932
7.948
7.932
7.92
7.904
7.948
7.952
7.928
7.932
7.94
7.96
7.924
7.936
7.944
7.944
7.928
7.912
7.936
7.944
7.916
7.916
7.928
7.952
7.912
7.92
7.936
7.964
7.952
7.992
8.004
8.012
8.024
8.048
8.088
8.164
8.176
8.16
8.088
8.076
8.072
8.024
7.984
7.972
7.968
7.952
7.932
7.908
7.944
7.92
7.9
7.904
7.908
7.908
7.892
7.916
7.944
7.904
7.892
7.916
7.872
7.8
7.74
7.864
8.224
8.76
9.436
10.052
10.68
11.084
11.128
10.888
9.876
8.572
7.824
7.588
7.56
7.66
7.76
7.868
7.972
8.02
7.984
7.96
7.972
7.972
7.972
7.96
7.972
7.992
8.016
7.996
7.976
7.992
8.016
8.008
8.004
8.016
8.012
8.02
8.028
8.028
8.06
8.06
8.06
8.06
8.08
8.076
8.092
8.088
8.116
8.136
8.144
8.148
8.176
8.2
8.212
8.216
8.248
8.284
8.312
8.332
8.392
8.436
8.46
8.492
8.54
8.604
8.636
8.656
8.692
8.76
8.788
8.8
8.804
8.816
8.808
8.764
8.72
8.664
8.604
8.524
8.448
8.404
8.324
8.264
8.224
8.176
8.124
8.096
8.032
8.028
8.032
8.008
7.972
7.984
8.008
7.988
7.964
7.992
7.98
7.96
7.952
7.98
7.972
8
7.968
7.984
7.972
7.996
7.968
7.98
7.992
7.996
7.984
7.972
7.956
7.968
7.984
7.956
7.98
7.976
7.968
7.956
7.956
7.96
7.96
7.98
7.964
7.976
7.968
7.94
7.956
7.936
7.972
7.928
7.932
7.964
7.964
7.936
7.928
7.94
7.948
7.956
7.92
7.94
7.956
7.932
7.9
7.924
7.924
7.932
7.924
7.912
7.96
7.96
7.916
7.896
7.916
7.944
7.916
7.916
7.936
7.94
7.912
7.904
7.924
7.932
7.904
7.896
7.932
7.948
7.924
7.9
7.924
7.972
7.98
7.98
7.992
8.016
8.02
8.06
8.108
8.14
8.172
8.148
8.06
8.068
8.052
8.012
7.968
7.956
7.988
7.952
7.892
7.916
7.916
7.92
7.872
7.876
7.916
7.888
7.876
7.872
7.912
7.912
7.904
7.876
7.824
7.748
7.78
8
8.4
9.044
9.632
10.252
10.864
11.084
11.108
10.576
9.308
8.156
7.636
7.44
7.516
7.66
7.808
7.912
7.992
7.972
7.956
7.94
7.92
7.948
7.968
7.952
7.936
7.984
7.976
7.96
7.956
7.972
7.96
7.98
7.964
7.972
8
8.004
7.996
8.016
8.024
8.028
8.032
8.052
8.072
8.064
8.072
8.084
8.112
8.116
8.104
8.124
8.152
8.18
8.192
8.204
8.228
8.292
8.308
8.332
8.384
8.428
8.472
8.484
8.516
8.588
8.632
8.656
8.692
8.728
8.792
8.76
8.78
8.808
8.812
8.752
8.696
8.652
8.576
8.492
8.42
8.364
8.316
8.256
8.18
8.136
8.112
8.072
8.012
7.996
8.004
7.988
7.96
7.94
7.96
7.944
7.92
7.924
7.944
7.94
7.928
7.94
7.948
7.948
7.944
7.908
7.94
7.944
7.956
7.948
7.948
7.956
7.952
7.92
7.928
7.948
7.948
7.936
7.928
7.944
7.94
7.94
7.92
7.952
7.952
7.936
7.932
7.952
7.956
7.94
7.924
7.892
7.944
7.932
7.908
7.928
7.952
7.92
7.9
7.888
7.916
7.956
7.912
7.888
7.928
7.924
7.9
7.904
7.912
7.9
7.896
7.92
7.94
7.928
7.912
7.892
7.888
7.9
7.916
7.892
7.904
7.908
7.916
7.912
7.9
7.928
7.92
7.904
7.9
7.932
7.924
7.892
7.884
7.916
7.92
7.904
7.896
7.924
7.944
7.908
7.924
7.932
7.98
7.96
7.964
7.988
8.036
8.08
8.092
8.132
8.184
8.164
8.06
8.028
8.052
8.016
7.972
7.948
7.956
7.932
7.892
7.908
7.916
7.884
7.896
7.888
7.884
7.904
7.9
7.884
7.868
7.884
7.888
7.864
7.808
7.724
7.796
8.044
8.392
9.072
9.704
10.304
10.896
11.112
11.116
10.524
9.204
8.072
7.596
7.428
7.452
7.616
7.772
7.892
7.952
7.948
7.94
7.936
7.916
7.92
7.928
7.956
7.932
7.924
7.94
7.952
7.94
7.936
7.952
7.956
7.948
7.964
7.992
7.992
8
7.996
7.996
8.02
8.036
7.996
8.012
8.064
8.072
8.048
8.08
8.104
8.116
8.124
8.12
8.152
8.192
8.164
8.216
8.264
8.3
8.296
8.34
8.396
8.452
8.468
8.492
8.556
8.604
8.624
8.664
8.712
8.756
8.776
8.78
8.788
8.804
8.768
8.704
8.624
8.576
8.508
8.408
8.344
8.32
8.26
8.196
8.136
8.104
8.06
8.012
7.976
7.96
7.976
7.964
7.904
7.924
7.936
7.94
7.928
7.892
7.912
7.924
7.896
7.908
7.928
7.924
7.888
7.888
7.908
7.924
7.908
7.912
7.924
7.908
7.908
7.888
7.896
7.904
7.92
7.876
7.912
7.932
7.932
7.888
7.892
7.928
7.904
7.88
7.888
7.92
7.908
7.9
7.872
7.884
7.9
7.888
7.876
7.912
7.896
7.872
7.852
7.876
7.892
7.9
7.872
7.888
7.892
7.892
7.848
7.832
7.876
7.872
7.852
7.848
7.884
7.9
7.872
7.884
7.9
7.944
7.928
7.956
7.996
8.06
8.088
8.08
8.116
8.076
8.036
8.004
7.996
7.96
7.944
7.916
7.868
7.88
7.864
7.864
7.844
7.828
7.856
7.844
7.836
7.844
7.84
7.836
7.84
7.86
7.884
7.864
7.78
7.688
7.648
7.812
8.128
8.72
9.488
10.124
10.732
11.04
11.068
10.724
9.556
8.308
7.664
7.476
7.424
7.512
7.676
7.796
7.88
7.904
7.892
7.892
7.896
7.88
7.876
7.896
7.896
7.924
7.896
7.916
7.92
7.924
7.908
7.94
7.968
7.952
7.948
7.964
7.988
7.988
7.98
7.992
8.02
7.988
7.992
8.036
8.068
8.048
8.036
8.06
8.1
8.116
8.124
8.136
8.164
8.204
8.176
8.228
8.264
8.328
8.328
8.364
8.412
8.46
8.484
8.52
8.592
8.62
8.652
8.684
8.728
8.732
8.748
8.756
8.728
8.72
8.668
8.596
8.54
8.496
8.392
8.32
8.244
8.188
8.176
8.116
8.088
8.044
8.044
7.984
7.972
7.956
7.96
7.96
7.928
7.952
7.952
7.912
7.904
7.924
7.96
7.94
7.92
7.932
7.948
7.952
7.912
7.928
7.956
7.976
7.948
7.96
7.98
7.952
7.944
7.956
7.96
7.98
7.964
7.952
7.972
7.956
7.936
7.924
7.932
7.956
7.96
7.936
7.952
7.964
7.948
7.92
7.928
7.944
7.94
7.932
7.928
7.94
7.936
7.936
7.928
7.932
7.952
7.944
7.924
7.96
7.956
7.94
7.948
7.98
7.976
8.02
8.02
8.02
8.06
8.084
8.124
8.164
8.18
8.168
8.092
8.052
8.084
8.06
8
7.98
7.996
7.96
7.944
7.92
7.92
7.928
7.92
7.908
7.912
7.908
7.94
7.916
7.916
7.908
7.928
7.9
7.908
7.84
7.788
7.836
8.14
8.604
9.276
9.868
10.5
11.056
11.168
11.088
10.3
8.94
7.984
7.596
7.496
7.624
7.728
7.852
7.96
8.004
7.996
7.984
7.964
7.952
7.976
7.992
7.968
7.972
7.988
7.976
7.96
7.984
7.988
8.032
8.036
8.024
8.032
8.04
8.032
8.028
8.044
8.068
8.072
8.068
8.076
8.08
8.076
8.092
8.108
8.14
8.168
8.16
8.164
8.184
8.232
8.228
8.252
8.292
8.304
8.336
8.372
8.42
8.468
8.5
8.528
8.592
8.648
8.68
8.696
8.752
8.788
8.816
8.808
8.812
8.816
8.804
8.728
8.668
8.612
8.548
8.452
8.368
8.344
8.276
8.22
8.164
8.124
8.096
8.04
8.008
8.008
8
8.012
7.984
7.956
7.984
7.98
7.948
7.936
7.976
7.988
7.968
7.964
7.992
7.988
7.976
7.964
7.988
7.992
7.972
7.976
7.972
7.972
7.976
7.972
7.976
7.996
7.98
7.972
7.98
7.992
7.98
7.944
7.972
7.972
7.996
7.964
7.96
7.976
7.984
7.972
7.952
7.976
7.976
7.956
7.956
7.96
7.98
7.936
7.956
7.976
7.984
7.984
7.964
7.968
7.98
7.964
7.944
7.948
7.992
8.004
7.984
8.004
8.024
8.04
8.052
8.032
8.036
8.108
8.144
8.176
8.208
8.212
8.14
8.068
8.072
8.088
8.048
8.016
8.012
8
7.988
7.944
7.928
7.96
7.948
7.944
7.936
7.948
7.948
7.928
7.944
7.956
7.96
7.952
7.94
7.908
7.82
7.796
8
8.38
8.976
9.624
10.228
10.836
11.156
11.224
10.812
9.576
8.332
7.712
7.472
7.528
7.676
7.808
7.916
8
8.04
8.02
8.004
7.996
8.012
8.008
8.02
8
8.02
8.04
8.032
8.036
8.036
8.052
8.06
8.052
8.048
8.056
8.088
8.068
8.06
8.108
8.088
8.08
8.104
8.136
8.144
8.152
8.164
8.164
8.212
8.16
8.18
8.24
8.276
8.288
8.276
8.304
8.352
8.392
8.404
8.448
8.488
8.572
8.58
8.612
8.652
8.72
8.76
8.784
8.84
8.856
8.876
8.884
8.872
8.868
8.808
8.752
8.696
8.636
8.56
8.496
8.44
8.372
8.288
8.248
8.192
8.192
8.16
8.132
8.08
8.068
8.052
8.048
8.028
8.044
8.076
8.06
8.02
8.044
8.044
8.02
8.024
8.02
8.06
8.056
8.024
8.032
8.056
8.072
8.032
8.04
8.064
8.084
8.048
8.02
8.056
8.044
8.04
8.04
8.056
8.072
8.048
8.024
8.032
8.032
8.04
8.008
8.032
8.044
8.036
8.036
8.02
8.028
8.032
8.008
8.004
8.024
8.036
8.012
8.004
8.02
8.024
8.008
7.98
8.02
8.012
8.016
7.996
8.012
8.016
7.98
8
7.996
8.032
8.028
7.996
8.008
8.04
8.056
8.048
8.072
8.1
8.12
8.124
8.192
8.268
8.276
8.244
8.18
8.14
8.168
8.12
8.048
8.052
8.056
8.048
7.992
7.984
7.996
8.012
7.968
7.952
7.992
7.964
7.972
7.964
7.988
7.996
7.984
7.948
7.972
7.924
7.816
7.832
8.128
8.512
9.18
9.82
10.472
11.064
11.2
11.176
10.544
9.248
8.088
7.628
7.448
7.56
7.716
7.82
7.94
8.056
8.048
8.016
8
8.028
8.004
7.996
7.984
8.016
8.04
8.04
8.04
8.048
8.056
8.06
8.02
8.052
8.084
8.072
8.064
8.076
8.08
8.1
8.104
8.108
8.148
8.128
8.14
8.128
8.152
8.18
8.192
8.184
8.204
8.26
8.252
8.26
8.296
8.312
8.316
8.34
8.404
8.448
8.492
8.512
8.552
8.612
8.652
8.684
8.72
8.796
8.84
8.848
8.828
8.864
8.876
8.824
8.78
8.724
8.684
8.588
8.536
8.46
8.416
8.36
8.28
8.24
8.22
8.156
8.132
8.096
8.092
8.06
8.016
8.004
8.04
8.044
8.02
8
8.032
8.032
8.004
8.004
8.04
8.04
8.016
8.012
8.028
8.04
8.004
8.012
8.028
8.028
8.04
8.02
8.008
8.032
8.024
8.012
8.012
8.028
8.056
8.028
8.012
8.048
8.036
8.012
8.016
8.044
8.064
8.012
7.992
8
8.02
8.012
7.976
8.028
8.04
8.032
8
8.008
8.016
8.016
7.984
7.996
8.02
8.016
7.98
7.98
8.004
8.004
7.988
7.992
8.044
8.044
8.024
8.052
8.044
8.064
8.092
8.076
8.096
8.176
8.188
8.232
8.224
8.248
8.192
8.144
8.12
8.136
8.112
8.072
8.036
8.04
8.028
7.972
7.992
8.016
8.012
7.996
7.98
7.964
8.004
7.992
7.972
7.992
7.984
8.004
7.964
7.916
7.828
7.856
8.06
8.428
9.152
9.856
10.48
11.04
11.256
11.204
10.58
9.276
8.204
7.764
7.576
7.604
7.716
7.888
7.968
8.044
8.048
8.068
8.052
8.036
8.044
8.064
8.056
8.016
8.032
8.052
8.08
8.064
8.052
8.084
8.064
8.076
8.068
8.108
8.12
8.112
8.116
8.104
8.128
8.124
8.124
8.152
8.18
8.176
8.172
8.176
8.208
8.22
8.2
8.24
8.272
8.32
8.296
8.332
8.348
8.408
8.416
8.432
8.532
8.56
8.6
8.612
8.668
8.716
8.752
8.776
8.824
8.856
8.888
8.848
8.86
8.836
8.812
8.728
8.704
8.636
8.576
8.48
8.408
8.356
8.312
8.244
8.216
8.196
8.164
8.104
8.092
8.076
8.072
8.044
8.012
8.04
8.064
8.052
8.024
8.036
8.044
8.048
8.02
8.02
8.072
8.056
8.04
8.044
8.056
8.056
8.044
8.044
8.064
8.064
8.064
8.04
8.044
8.072
8.06
8.024
8.04
8.052
8.028
8.012
8.012
8.024
8.032
7.984
8
8.036
8.052
8.048
8
8.028
8.02
8
7.976
8.02
8.024
7.996
7.988
7.996
8.008
7.988
7.968
7.984
8.02
8.004
7.996
7.988
7.988
7.996
7.98
7.976
7.996
8.008
7.988
7.98
8.016
8.008
7.992
8.008
8.048
8.072
8.056
8.068
8.08
8.128
8.14
8.172
8.224
8.292
8.216
8.144
8.112
8.104
8.1
8.024
8.04
8.048
8.044
7.984
7.992
7.968
7.98
7.956
7.968
7.988
7.988
7.98
7.956
7.988
7.992
7.96
7.968
7.944
7.88
7.836
7.936
8.252
8.808
9.452
10.032
10.672
11.152
11.264
11.052
10.048
8.68
7.876
7.552
7.532
7.7
7.824
7.932
8.024
8.064
8.06
8.024
7.996
8.032
8.052
8.032
8.024
8.012
8.02
8.028
8.052
8.044
8.076
8.072
8.052
8.064
8.092
8.1
8.084
8.08
8.116
8.152
8.104
8.116
8.132
8.16
8.164
8.164
8.172
8.196
8.216
8.204
8.244
8.264
8.292
8.288
8.308
8.348
8.388
8.392
8.428
8.508
8.556
8.576
8.596
8.676
8.728
8.752
8.78
8.832
8.872
8.884
8.884
8.896
8.912
8.856
8.816
8.752
8.708
8.624
8.552
8.468
8.448
8.372
8.288
8.22
8.228
8.172
8.144
8.112
8.096
8.116
8.072
8.056
8.048
8.064
8.036
8.048
8.052
8.06
8.068
8.024
8.036
8.036
8.048
8.024
8.052
8.088
8.088
8.044
8.044
8.048
8.072
8.044
8.064
8.06
8.084
8.068
8.016
8.04
8.076
8.052
8.036
8.048
8.072
8.052
8.02
8.036
8.052
8.056
8.02
8.04
8.044
8.064
8.028
8.024
8.048
8.04
8.044
8.02
8.02
8.04
8.024
8.008
8.028
8.04
8.032
8
8.02
8.032
8.012
8.024
8.012
8.04
8.02
7.98
8.008
8.012
8.04
8
7.996
8.024
8.008
8.004
7.996
8.024
8.028
8.012
7.984
8.024
8.016
8.016
8.024
8.068
8.084
8.08
8.084
8.1
8.148
8.172
8.208
8.252
8.256
8.252
8.14
8.136
8.136
8.124
8.06
8.032
8.072
8.064
8.004
7.968
7.98
7.996
7.988
7.98
7.976
8
7.972
7.952
7.952
7.992
7.996
7.964
7.912
7.82
7.88
8.116
8.456
9.12
9.748
10.36
10.984
11.196
11.256
10.66
9.328
8.18
7.668
7.492
7.568
7.7
7.86
7.964
8.04
8.024
8
8.02
7.996
7.992
8.032
8.044
8.012
8.008
8.036
8.056
8.012
8.008
8.048
8.084
8.056
8.024
8.048
8.072
8.056
8.052
8.076
8.096
8.12
8.096
8.112
8.124
8.14
8.116
8.152
8.164
8.196
8.196
8.2
8.228
8.272
8.268
8.288
8.336
8.38
8.384
8.412
8.46
8.512
8.536
8.592
8.636
8.688
8.732
8.74
8.796
8.836
8.84
8.848
8.868
8.864
8.808
8.764
8.68
8.656
8.568
8.488
8.428
8.38
8.336
8.276
8.196
8.148
8.128
8.076
8.036
8.044
8.056
8.04
7.996
7.996
7.992
7.992
7.988
8.004
7.988
7.996
7.976
7.968
7.992
8.012
7.984
7.972
8.02
8
7.98
7.98
7.984
8.012
8
7.98
8.004
8.012
8.008
7.964
7.972
7.976
8
7.996
7.976
8.028
8.012
7.988
7.964
7.984
8.004
7.964
7.964
7.988
7.972
7.976
7.964
7.988
7.992
7.98
7.968
7.956
7.992
7.948
7.96
7.944
7.96
7.976
7.968
7.956
7.988
7.968
7.956
7.944
7.944
7.964
7.94
7.948
7.952
7.968
7.956
7.948
7.952
7.964
7.952
7.96
7.992
8.036
8.036
8.024
8.064
8.124
8.176
8.188
8.172
8.152
8.12
8.088
8.06
8.02
8.008
8.004
7.964
7.964
7.936
7.932
7.92
7.936
7.96
7.936
7.904
7.936
7.948
7.94
7.932
7.92
7.928
7.92
7.852
7.756
7.752
7.964
8.308
8.996
9.72
10.372
10.948
11.14
11.128
10.6
9.3
8.144
7.684
7.5
7.512
7.632
7.748
7.892
7.98
7.98
7.944
7.984
8
7.968
7.98
7.988
8.016
7.98
7.988
8
8.02
8.008
8.028
8.028
8.06
8.052
8.04
8.056
8.08
8.068
8.064
8.064
8.108
8.084
8.088
8.1
8.132
8.18
8.14
8.144
8.188
8.204
8.192
8.176
8.244
8.276
8.284
8.316
8.348
8.392
8.416
8.44
8.492
8.556
8.576
8.604
8.66
8.716
8.72
8.752
8.796
8.832
8.84
8.812
8.8
8.792
8.76
8.648
8.596
8.544
8.488
8.408
8.348
8.292
8.272
8.192
8.148
8.136
8.104
8.104
8.056
8.076
8.08
8.04
8.016
8.016
8.052
8.02
8.028
8.02
8.04
8.032
8.04
8.004
8.044
8.052
8.032
8.056
8.06
8.052
8.044
8.032
8.052
8.056
8.052
8.044
8.056
8.064
8.068
8.048
8.048
8.068
8.048
8.044
8.044
8.06
8.072
8.024
8.024
8.036
8.048
8.032
8.012
8.036
8.036
8.028
8.012
8.02
8.024
8.02
8.028
8.02
8.044
8.04
8.012
8.028
8.028
8.04
8.012
8.036
8.056
8.044
8.02
8.024
8.06
8.072
8.064
8.084
8.108
8.112
8.12
8.168
8.236
8.272
8.264
8.22
8.164
8.164
8.116
8.104
8.088
8.092
8.084
8.048
8.024
8.024
8
7.992
7.992
8.012
8.004
7.976
7.968
8.02
8.004
7.992
7.988
7.984
7.96
7.884
7.82
7.976
8.292
8.78
9.416
10.056
10.704
11.18
11.224
11.092
10.128
8.776
7.94
7.616
7.592
7.7
7.812
7.924
8.04
8.08
8.032
7.996
8.032
8.044
8.028
8.024
8.032
8.044
8.036
8.028
8.028
8.048
8.048
8.056
8.056
8.088
8.1
8.072
8.052
8.108
8.116
8.1
8.116
8.124
8.144
8.144
8.136
8.156
8.18
8.168
8.204
8.216
8.228
8.26
8.272
8.3
8.34
8.356
8.376
8.408
8.456
8.504
8.504
8.568
8.62
8.668
8.684
8.736
8.772
8.824
8.836
8.872
8.884
8.896
8.864
8.832
8.796
8.732
8.66
8.576
8.504
8.46
8.408
8.336
8.26
8.216
8.192
8.14
8.096
8.084
8.072
8.064
8.02
8.048
8.052
8.028
7.996
8.032
8.04
8.008
8.024
8.04
8.032
8.032
8.036
8.036
8.048
8.024
8.02
8.04
8.056
8.036
8.028
8.016
8.06
8.056
8.056
8.036
8.048
8.052
8.032
8.024
8.044
8.048
8.02
8.004
8.04
8.04
8.016
8.008
8.004
8.024
8.004
8.008
8
8.048
8.02
8
7.992
8.016
8.016
8.02
7.992
8.024
8.008
7.996
7.98
7.988
8.028
8.008
8.008
8.028
8.024
8.012
7.98
8.012
8.032
8.04
8.024
8.092
8.08
8.104
8.076
8.064
8.136
8.188
8.204
8.24
8.284
8.276
8.172
8.112
8.136
8.12
8.056
8.064
8.068
8.068
8.008
7.972
7.968
8.004
7.992
7.976
7.976
7.996
7.996
7.98
7.952
8
7.988
7.94
7.94
7.888
7.836
7.948
8.24
8.74
9.408
10.008
10.676
11.132
11.26
11.096
10.088
8.692
7.856
7.532
7.496
7.644
7.772
7.912
7.996
8.04
8.044
8.028
8.028
8.012
8.036
8.032
8.024
8.004
8.02
8.06
8.036
8.016
8.048
8.064
8.072
8.048
8.068
8.1
8.096
8.076
8.076
8.128
8.116
8.108
8.104
8.152
8.148
8.156
8.144
8.192
8.2
8.188
8.184
8.248
8.292
8.292
8.296
8.352
8.376
8.4
8.428
8.46
8.496
8.556
8.588
8.624
8.7
8.744
8.756
8.776
8.84
8.88
8.856
8.88
8.876
8.772
8.788
8.708
8.672
8.608
8.528
8.464
8.408
8.364
8.292
8.22
8.176
8.16
8.12
8.076
8.064
8.064
8.068
8.02
7.988
8.02
8.016
7.992
8
8.02
8.02
8.02
7.98
8.032
8.032
8.02
8.016
8.004
8.036
8.008
8
7.988
8.016
8.012
8.012
8.004
8.036
8.024
7.984
7.992
8.012
8.024
7.996
8.008
8.016
7.932
7.996
7.984
8.004
7.992
7.968
7.976
8.008
8.004
8
7.972
7.952
8
7.996
7.964
7.984
8.004
7.988
7.972
7.952
7.964
7.972
7.972
7.968
7.988
7.956
7.96
7.952
7.964
7.988
8.008
8
8.048
8.072
8.052
8.048
8.096
8.148
8.184
8.204
8.208
8.188
8.128
8.08
8.048
8.052
8.02
8.016
7.996
7.96
7.948
7.944
7.944
7.936
7.936
7.936
7.932
7.928
7.944
7.936
7.916
7.94
7.968
7.936
7.868
7.74
7.776
7.996
8.344
9.02
9.736
10.364
10.964
11.144
11.14
10.604
9.284
8.124
7.652
7.464
7.48
7.632
7.748
7.888
7.972
7.992
7.968
7.996
7.968
7.952
7.988
7.996
8.008
7.96
7.972
7.996
8.004
7.992
8
8.016
8.028
8.016
8.016
8.032
8.052
8.052
8.028
8.048
8.084
8.064
8.064
8.076
8.096
8.092
8.116
8.12
8.16
8.184
8.188
8.192
8.228
8.244
8.252
8.28
8.336
8.376
8.384
8.4
8.444
8.528
8.528
8.588
8.652
8.696
8.712
8.728
8.76
8.792
8.812
8.78
8.772
8.736
8.684
8.6
8.544
8.492
8.444
8.368
8.288
8.272
8.212
8.152
8.108
8.06
8.048
8.036
7.992
8.004
7.996
7.996
7.944
7.952
7.948
7.964
7.94
7.964
7.984
7.992
7.964
7.948
7.996
7.98
7.956
7.976
8
7.988
7.992
7.98
7.996
7.972
7.988
7.976
7.988
7.984
7.984
7.976
7.968
7.968
7.988
7.952
7.968
7.972
7.968
7.952
7.952
7.96
7.968
7.94
7.968
7.964
7.972
7.936
7.944
7.956
7.972
7.948
7.956
7.972
7.976
7.952
7.956
7.948
7.992
8
7.992
8.024
8.048
8.052
8.052
8.084
8.168
8.196
8.184
8.152
8.116
8.096
8.08
8.032
8.008
8.012
7.984
7.98
7.96
7.944
7.94
7.9
7.928
7.924
7.944
7.936
7.932
7.944
7.968
7.932
7.924
7.952
7.912
7.812
7.74
7.856
8.164
8.62
9.368
9.996
10.64
11.104
11.18
11.076
10.176
8.784
7.904
7.588
7.536
7.608
7.74
7.848
7.964
8.036
7.972
7.968
7.98
7.976
7.972
7.96
7.988
8.004
7.988
7.972
8.012
8.008
8.004
8
8.016
8.044
8.032
8.024
8.032
8.064
8.036
8.028
8.048
8.064
8.092
8.076
8.072
8.128
8.152
8.124
8.14
8.184
8.188
8.192
8.184
8.232
8.276
8.28
8.308
8.36
8.404
8.4
8.448
8.496
8.54
8.584
8.616
8.664
8.704
8.736
8.74
8.76
8.8
8.796
8.764
8.748
8.708
8.652
8.572
8.484
8.44
8.388
8.308
8.244
8.196
8.168
8.112
8.072
8.056
8.048
8.02
8
8
8.004
7.996
7.968
7.936
7.956
7.988
7.96
7.964
7.968
7.988
7.972
7.96
7.956
7.98
7.988
7.964
7.976
8.004
7.984
7.972
7.972
8.004
7.992
7.976
7.964
8.008
7.984
7.964
7.956
7.988
7.988
7.952
7.96
7.964
7.98
7.952
7.956
7.96
7.968
7.944
7.952
7.94
7.968
7.956
7.932
7.94
7.956
7.94
7.924
7.92
7.94
7.952
7.916
7.908
7.94
7.948
7.936
7.944
7.976
7.992
8
7.976
8.008
8.028
8.072
8.144
8.168
8.176
8.164
8.056
8.06
8.052
8.024
7.98
7.984
7.996
7.96
7.92
7.896
7.908
7.92
7.9
7.9
7.916
7.932
7.88
7.892
7.916
7.896
7.892
7.88
7.864
7.816
7.748
7.876
8.2
8.716
9.348
9.94
10.584
11.06
11.172
10.98
9.996
8.644
7.796
7.464
7.444
7.612
7.712
7.836
7.928
7.944
7.944
7.916
7.912
7.94
7.968
7.944
7.912
7.924
7.948
7.948
7.956
7.96
7.98
7.984
7.984
7.964
8
8.012
7.984
8
8.004
8.028
8.012
8.008
8.052
8.048
8.052
8.036
8.072
8.12
8.092
8.104
8.116
8.172
8.18
8.212
8.224
8.264
8.3
8.308
8.336
8.4
8.448
8.464
8.524
8.576
8.6
8.64
8.664
8.708
8.752
8.756
8.764
8.792
8.784
8.708
8.668
8.6
8.564
8.5
8.408
8.356
8.32
8.248
8.164
8.116
8.092
8.048
7.992
7.972
7.988
7.972
7.94
7.936
7.944
7.924
7.956
7.928
7.936
7.964
7.924
7.924
7.932
7.94
7.956
7.936
7.94
7.956
7.96
7.948
7.928
7.944
7.956
7.96
7.952
7.948
7.976
7.936
7.932
7.94
7.944
7.94
7.932
7.948
7.972
7.936
7.932
7.936
7.944
7.932
7.94
7.92
7.952
7.936
7.92
7.9
7.908
7.932
7.92
7.904
7.908
7.94
7.912
7.904
7.904
7.912
7.908
7.896
7.924
7.948
7.936
7.932
7.956
7.996
8
8
8.036
8.112
8.148
8.168
8.148
8.096
8.048
8.028
7.996
7.976
8
7.952
7.936
7.912
7.904
7.888
7.852
7.892
7.896
7.86
7.86
7.872
7.876
7.896
7.88
7.884
7.896
7.892
7.816
7.708
7.74
7.968
8.308
8.924
9.572
10.22
10.82
11.088
11.156
10.724
9.46
8.188
7.616
7.392
7.452
7.572
7.696
7.852
7.956
7.944
7.904
7.928
7.924
7.912
7.916
7.916
7.944
7.924
7.92
7.932
7.944
7.94
7.916
7.964
7.952
7.964
7.972
7.988
8.008
7.988
7.984
7.988
8.004
8.016
8.024
8.052
8.056
8.076
8.048
8.052
8.12
8.128
8.136
8.144
8.172
8.212
8.212
8.208
8.276
8.316
8.348
8.38
8.404
8.48
8.52
8.52
8.564
8.632
8.696
8.7
8.744
8.78
8.772
8.736
8.7
8.7
8.632
8.556
8.508
8.448
8.384
8.28
8.232
8.192
8.132
8.064
8.024
8.02
8.008
7.976
7.944
7.944
7.936
7.936
7.908
7.92
7.92
7.932
7.884
7.9
7.924
7.932
7.904
7.888
7.924
7.944
7.916
7.9
7.92
7.94
7.916
7.928
7.94
7.944
7.924
7.912
7.928
7.94
7.94
7.916
7.904
7.904
7.928
7.876
7.88
7.912
7.92
7.904
7.9
7.916
7.9
7.896
7.864
7.892
7.9
7.88
7.872
7.884
7.912
7.888
7.868
7.856
7.888
7.876
7.852
7.868
7.9
7.88
7.88
7.868
7.88
7.9
7.852
7.856
7.884
7.884
7.856
7.856
7.872
7.904
7.872
7.896
7.92
7.896
7.928
7.928
7.924
7.98
8.012
8.064
8.116
8.144
8.124
8.044
7.984
8.008
7.988
7.916
7.928
7.928
7.92
7.888
7.856
7.864
7.872
7.852
7.844
7.856
7.876
7.848
7.848
7.836
7.852
7.876
7.856
7.836
7.788
7.676
7.768
8.044
8.524
9.236
9.864
10.508
11.028
11.148
10.988
10.104
8.744
7.836
7.48
7.376
7.488
7.636
7.752
7.844
7.916
7.924
7.888
7.876
7.9
7.912
7.912
7.896
7.896
7.908
7.924
7.908
7.908
7.936
7.948
7.944
7.932
7.94
7.976
7.968
7.94
7.952
8
7.992
7.976
7.992
8.016
8.024
8.032
8.048
8.072
8.084
8.072
8.104
8.112
8.14
8.152
8.172
8.208
8.224
8.248
8.284
8.308
8.364
8.396
8.452
8.488
8.56
8.572
8.604
8.64
8.688
8.716
8.724
8.716
8.724
8.704
8.652
8.6
8.548
8.512
8.42
8.36
8.316
8.248
8.196
8.124
8.092
8.084
8.032
7.996
7.968
7.972
7.956
7.924
7.916
7.928
7.924
7.904
7.9
7.912
7.924
7.912
7.904
7.936
7.912
7.928
7.94
7.932
7.952
7.936
7.928
7.944
7.944
7.936
7.928
7.928
7.948
7.936
7.924
7.936
7.948
7.94
7.92
7.932
7.94
7.94
7.904
7.904
7.928
7.928
7.916
7.892
7.928
7.932
7.912
7.9
7.932
7.92
7.916
7.912
7.9
7.916
7.916
7.884
7.9
7.892
7.924
7.908
7.892
7.9
7.92
7.888
7.884
7.892
7.912
7.912
7.888
7.908
7.912
7.912
7.896
7.92
7.944
7.948
7.94
8
7.996
8.012
8.04
8.084
8.14
8.16
8.116
8.072
8.028
8.048
7.996
7.94
7.976
7.968
7.932
7.9
7.9
7.892
7.884
7.856
7.872
7.904
7.9
7.892
7.888
7.916
7.876
7.872
7.868
7.876
7.784
7.708
7.796
8.116
8.588
9.296
9.904
10.568
11.068
11.112
10.992
10.1
8.752
7.852
7.564
7.5
7.58
7.688
7.812
7.924
7.972
7.952
7.928
7.916
7.932
7.936
7.944
7.92
7.94
7.96
7.928
7.952
7.984
7.996
7.988
7.972
8.004
8.012
7.988
7.956
8
8.012
8.036
7.996
8.04
8.044
8.02
8.064
8.06
8.088
8.1
8.112
8.14
8.164
8.184
8.172
8.168
8.216
8.26
8.288
8.3
8.348
8.388
8.416
8.444
8.496
8.524
8.572
8.6
8.652
8.684
8.708
8.712
8.732
8.748
8.744
8.7
8.68
8.632
8.584
8.468
8.408
8.372
8.316
8.232
8.176
8.14
8.116
8.052
8.024
8.024
8
7.984
7.972
7.96
7.96
7.96
7.936
7.928
7.932
7.952
7.936
7.928
7.972
7.94
7.928
7.916
7.968
7.972
7.936
7.948
7.96
7.972
7.96
7.944
7.936
7.968
7.952
7.948
7.964
7.952
7.96
7.956
7.94
7.956
7.956
7.948
7.916
7.968
7.948
7.928
7.916
7.944
7.936
7.944
7.916
7.948
7.952
7.92
7.888
7.936
7.928
7.928
7.908
7.916
7.924
7.924
7.884
7.896
7.916
7.904
7.9
7.9
7.904
7.904
7.896
7.892
7.908
7.912
7.904
7.888
7.904
7.9
7.904
7.88
7.908
7.896
7.912
7.896
7.908
7.908
7.9
7.884
7.892
7.908
7.9
7.888
7.896
7.972
7.98
7.96
7.98
8.02
8.092
8.12
8.1
8.128
8.116
8.028
8.004
8.012
7.988
7.948
7.94
7.932
7.916
7.896
7.864
7.864
7.872
7.88
7.884
7.876
7.892
7.868
7.864
7.848
7.876
7.892
7.86
7.776
7.744
7.836
8.088
8.524
9.14
9.768
10.416
10.976
11.08
11.076
10.304
8.908
7.92
7.524
7.444
7.552
7.668
7.804
7.924
7.944
7.932
7.904
7.92
7.904
7.896
7.936
7.94
7.912
7.92
7.928
7.944
7.952
7.94
7.964
7.976
7.94
7.964
7.936
7.972
7.988
7.984
7.992
8.012
8.028
8.016
7.992
8.04
8.08
8.06
8.068
8.096
8.132
8.116
8.112
8.152
8.18
8.216
8.24
8.276
8.296
8.324
8.336
8.392
8.448
8.488
8.52
8.552
8.58
8.648
8.66
8.688
8.732
8.772
8.772
8.776
8.776
8.728
8.668
8.58
8.528
8.496
8.396
8.332
8.288
8.232
8.16
8.084
8.048
8.044
8.008
7.972
7.956
7.948
7.936
7.92
7.896
7.904
7.92
7.924
7.908
7.912
7.944
7.908
7.912
7.916
7.932
7.944
7.92
7.936
7.948
7.952
7.904
7.92
7.932
7.948
7.932
7.928
7.936
7.932
7.916
7.908
7.924
7.94
7.9
7.916
7.928
7.948
7.912
7.88
7.892
7.912
7.908
7.9
7.908
7.916
7.912
7.888
7.892
7.896
7.916
7.896
7.892
7.896
7.916
7.88
7.86
7.892
7.904
7.876
7.864
7.888
7.876
7.88
7.86
7.856
7.896
7.868
7.88
7.888
7.9
7.876
7.864
7.88
7.872
7.876
7.872
7.864
7.892
7.888
7.848
7.84
7.876
7.88
7.892
7.892
7.916
7.948
7.944
7.912
7.964
8.024
8.064
8.1
8.112
8.116
8.044
7.984
7.98
7.976
7.936
7.928
7.932
7.884
7.892
7.828
7.84
7.852
7.852
7.836
7.832
7.852
7.88
7.84
7.84
7.844
7.868
7.848
7.808
7.724
7.708
7.888
8.212
8.804
9.508
10.132
10.764
11.048
11.12
10.74
9.544
8.256
7.632
7.416
7.42
7.54
7.692
7.82
7.912
7.908
7.872
7.908
7.92
7.872
7.896
7.908
7.884
7.888
7.884
7.932
7.924
7.92
7.908
7.936
7.924
7.916
7.924
7.952
7.956
7.96
7.964
7.976
7.992
7.976
7.996
7.996
8.036
8.032
8.04
8.044
8.076
8.092
8.076
8.104
8.148
8.172
8.176
8.216
8.272
8.272
8.3
8.328
8.412
8.444
8.48
8.488
8.56
8.62
8.632
8.652
8.692
8.74
8.756
8.748
8.744
8.716
8.676
8.58
8.548
8.496
8.432
8.36
8.276
8.216
8.18
8.128
8.044
8.008
8.024
7.98
7.956
7.948
7.908
7.916
7.912
7.896
7.916
7.9
7.892
7.884
7.888
7.9
7.86
7.884
7.924
7.908
7.9
7.896
7.892
7.904
7.884
7.912
7.916
7.916
7.908
7.904
7.928
7.916
7.908
7.872
7.884
7.92
7.888
7.888
7.896
7.916
7.892
7.868
7.872
7.9
7.896
7.876
7.892
7.892
7.9
7.868
7.848
7.88
7.9
7.88
7.872
7.876
7.892
7.876
7.844
7.872
7.892
7.888
7.848
7.876
7.888
7.888
7.872
7.868
7.888
7.896
7.896
7.896
7.924
7.94
7.932
7.936
8.012
8.056
8.084
8.116
8.128
8.104
8.016
7.988
8.004
7.956
7.956
7.92
7.916
7.892
7.86
7.816
7.864
7.856
7.872
7.856
7.864
7.856
7.852
7.836
7.844
7.876
7.872
7.832
7.808
7.692
7.644
7.776
8.148
8.756
9.512
10.12
10.728
11.052
11.092
10.708
9.532
8.276
7.688
7.496
7.436
7.536
7.68
7.8
7.856
7.912
7.912
7.936
7.876
7.828
7.868
7.88
7.864
7.876
7.884
7.912
7.928
7.9
7.908
7.936
7.9
7.88
7.904
7.932
7.956
7.928
7.944
7.972
7.988
7.952
7.944
8
8.016
8.012
8.024
8.06
8.056
8.076
8.064
8.112
8.132
8.152
8.18
8.208
8.256
8.264
8.3
8.336
8.376
8.436
8.46
8.492
8.572
8.588
8.592
8.624
8.7
8.752
8.736
8.732
8.728
8.7
8.648
8.576
8.532
8.452
8.4
8.34
8.292
8.252
8.18
8.096
8.096
8.156
8.196
8.076
7.972
7.892
7.896
7.92
7.872
7.916
7.936
7.908
7.916
7.916
7.924
7.9
7.916
7.932
7.948
7.956
7.932
7.944
7.956
7.956
7.932
7.936
7.944
7.968
7.936
7.944
7.944
7.972
7.936
7.92
7.944
7.952
7.936
7.928
7.94
7.936
7.928
7.916
7.936
7.944
7.908
7.916
7.92
7.916
7.904
7.892
7.888
7.92
7.9
7.876
7.904
7.888
7.88
7.864
7.86
7.848
7.912
7.88
7.86
7.864
7.88
7.88
7.868
7.876
7.9
7.884
7.904
7.912
7.936
7.944
7.94
7.948
8.012
8.056
8.092
8.108
8.136
8.084
7.984
7.984
8
7.984
7.932
7.924
7.916
7.904
7.852
7.84
7.86
7.86
7.856
7.852
7.836
7.872
7.868
7.832
7.852
7.88
7.88
7.844
7.776
7.704
7.776
8.048
8.432
9.072
9.688
10.324
10.892
11.068
11.076
10.412
9.072
7.988
7.536
7.404
7.5
7.628
7.732
7.86
7.884
7.88
7.88
7.86
7.86
7.808
7.836
7.872
7.844
7.872
7.884
7.9
7.888
7.888
7.9
7.912
7.904
7.908
7.916
7.948
7.948
7.936
7.948
7.964
7.98
7.972
7.992
8.008
8.016
8.012
8.028
8.044
8.052
8.068
8.08
8.12
8.132
8.176
8.18
8.2
8.268
8.284
8.304
8.36
8.408
8.464
8.496
8.528
8.568
8.596
8.64
8.676
8.712
8.736
8.74
8.724
8.716
8.664
8.616
8.54
8.472
8.412
8.348
8.272
8.232
8.184
8.104
8.028
8.012
8.004
7.96
7.928
7.924
7.904
7.88
7.876
7.88
7.912
7.88
7.884
7.876
7.884
7.896
7.884
7.864
7.904
7.92
7.884
7.884
7.9
7.9
7.888
7.864
7.88
7.9
7.952
7.908
7.9
7.908
7.908
7.872
7.904
7.9
7.888
7.868
7.868
7.88
7.88
7.86
7.856
7.88
7.888
7.872
7.852
7.88
7.88
7.856
7.848
7.872
7.876
7.868
7.844
7.864
7.872
7.836
7.864
7.848
7.864
7.872
7.864
7.856
7.868
7.912
7.892
7.924
7.928
7.96
7.976
8.02
8.08
8.116
8.076
8.008
7.98
8.004
7.976
7.912
7.904
7.916
7.9
7.84
7.828
7.86
7.824
7.816
7.82
7.828
7.836
7.824
7.808
7.816
7.86
7.82
7.82
7.82
7.776
7.644
7.684
7.952
8.36
8.988
9.628
10.308
10.892
11.044
11.028
10.456
9.176
8.028
7.504
7.332
7.412
7.564
7.684
7.792
7.904
7.888
7.852
7.872
7.864
7.892
7.864
7.864
7.872
7.916
7.868
7.888
7.888
7.908
7.912
7.912
7.928
7.952
7.948
7.952
7.948
7.956
7.964
7.956
7.956
8
8.004
7.996
8.008
8.028
8.048
8.048
8.06
8.092
8.128
8.152
8.132
8.168
8.204
8.196
8.22
8.288
8.312
8.392
8.392
8.444
8.472
8.508
8.58
8.6
8.644
8.696
8.72
8.712
8.736
8.752
8.704
8.664
8.632
8.588
8.516
8.428
8.34
8.3
8.248
8.156
8.112
8.112
8.056
8.008
7.968
7.964
7.956
7.924
7.908
7.916
7.916
7.912
7.9
7.88
7.916
7.884
7.888
7.904
7.932
7.92
7.9
7.9
7.936
7.928
7.908
7.896
7.932
7.936
7.916
7.892
7.928
7.936
7.916
7.904
7.912
7.924
7.912
7.912
7.912
7.912
7.916
7.908
7.908
7.948
7.936
7.888
7.916
7.932
7.908
7.884
7.888
7.908
7.936
7.896
7.88
7.936
7.936
7.94
7.94
7.98
7.996
7.992
7.984
8.028
8.068
8.136
8.148
8.168
8.132
8.088
8.048
8.024
8.024
7.976
7.944
7.952
7.936
7.92
7.884
7.892
7.892
7.92
7.872
7.876
7.916
7.908
7.904
7.876
7.888
7.9
7.892
7.828
7.8
7.704
7.744
8.004
8.468
9.268
9.9
10.496
11.004
11.1
11.024
10.148
8.788
7.924
7.628
7.492
7.54
7.684
7.804
7.892
7.94
7.96
7.956
7.936
7.908
7.952
7.964
7.956
7.956
7.96
7.98
7.972
7.96
7.972
7.976
7.988
7.976
7.984
8.008
8.024
8.012
8.012
8.048
8.06
8.044
8.028
8.068
8.084
8.076
8.096
8.108
8.156
8.148
8.152
8.16
8.212
8.224
8.212
8.272
8.332
8.356
8.364
8.392
8.424
8.472
8.5
8.548
8.576
8.636
8.68
8.704
8.736
8.764
8.768
8.76
8.76
8.724
8.684
8.604
8.572
8.492
8.448
8.356
8.312
8.284
8.228
8.168
8.128
8.1
8.08
8.036
8.02
8.028
8.012
7.996
7.98
8
8
7.988
7.984
8.008
8.012
8.004
8
7.996
8.004
8.012
7.992
8.008
8.032
8.016
8.012
8.004
8.024
8.02
7.996
8
8.016
8.04
8.016
7.984
8
8.02
7.984
7.988
7.996
8.008
7.996
7.98
7.976
7.992
7.988
7.976
7.976
7.984
7.996
7.98
7.968
8.008
8
7.984
7.984
8.04
8.032
8.032
8.048
8.076
8.108
8.136
8.18
8.188
8.216
8.14
8.096
8.056
8.072
8.036
7.98
8.016
8.016
8
7.936
7.912
7.916
7.948
7.92
7.896
7.948
7.932
7.924
7.924
7.92
7.924
7.904
7.896
7.88
7.792
7.8
8
8.372
8.992
9.592
10.236
10.828
11.096
11.144
10.716
9.48
8.28
7.704
7.48
7.56
7.712
7.812
7.916
7.948
7.968
7.96
7.936
7.916
7.952
7.968
7.96
7.952
7.944
7.968
7.968
7.948
7.964
7.988
7.992
7.964
7.972
8.008
8.012
7.996
7.996
8.044
8.06
8.024
8.02
8.064
8.068
8.076
8.06
8.088
8.132
8.104
8.124
8.132
8.192
8.212
8.208
8.248
8.28
8.332
8.332
8.36
8.428
8.472
8.48
8.512
8.604
8.644
8.66
8.7
8.74
8.756
8.768
8.764
8.748
8.752
8.692
8.612
8.552
8.512
8.444
8.372
8.308
8.244
8.188
8.144
8.072
8.056
8.048
8.02
7.988
7.984
7.984
7.988
7.956
7.956
7.968
7.936
7.924
7.936
7.968
7.968
7.948
7.956
7.972
7.968
7.952
7.96
7.988
7.98
7.964
7.952
7.952
7.964
7.96
7.952
7.98
7.996
7.972
7.928
7.96
7.96
7.96
7.924
7.968
7.98
7.948
7.928
7.924
7.94
7.92
7.908
7.924
7.948
7.964
7.936
7.908
7.948
7.94
7.908
7.924
7.952
7.988
7.972
7.972
7.996
8.032
8.008
8.02
8.064
8.128
8.156
8.16
8.124
8.104
8.052
8.032
8
8.008
7.988
7.948
7.932
7.94
7.916
7.868
7.872
7.912
7.908
7.88
7.884
7.888
7.888
7.876
7.888
7.892
7.92
7.896
7.824
7.716
7.748
7.984
8.34
8.956
9.6
10.252
10.84
11.064
11.148
10.664
9.372
8.128
7.592
7.42
7.472
7.616
7.74
7.86
7.94
7.932
7.92
7.932
7.924
7.896
7.904
7.932
7.912
7.92
7.932
7.948
7.952
7.924
7.936
7.968
7.948
7.948
7.94
7.988
8.004
7.988
7.984
8
8.044
8.016
8.016
8.052
8.06
8.06
8.068
8.1
8.12
8.12
8.12
8.16
8.192
8.22
8.216
8.232
8.3
8.34
8.344
8.376
8.428
8.504
8.544
8.552
8.608
8.664
8.68
8.704
8.732
8.788
8.768
8.74
8.732
8.684
8.604
8.528
8.484
8.436
8.38
8.308
8.22
8.18
8.14
8.068
8.04
8.028
8
7.992
7.952
7.96
7.972
7.928
7.908
7.936
7.964
7.936
7.912
7.924
7.928
7.94
7.924
7.94
7.944
7.968
7.936
7.908
7.964
7.96
7.944
7.916
7.964
7.956
7.94
7.936
7.952
7.924
7.928
7.924
7.956
7.96
7.948
7.92
7.928
7.932
7.936
7.904
7.924
7.944
7.936
7.912
7.884
7.936
7.928
7.904
7.884
7.94
7.924
7.916
7.896
7.924
7.908
7.896
7.896
7.908
7.936
7.936
7.9
7.888
7.924
7.912
7.908
7.916
7.944
7.964
7.936
7.948
8
7.996
7.964
8.004
8.108
8.148
8.148
8.14
8.148
8.1
8.052
8.012
8.012
8.004
7.996
7.952
7.944
7.912
7.904
7.888
7.888
7.928
7.932
7.908
7.888
7.916
7.936
7.904
7.92
7.92
7.932
7.876
7.792
7.748
7.856
8.12
8.58
9.3
9.924
10.564
11.036
11.1
11.012
10.164
8.808
7.86
7.572
7.452
7.548
7.672
7.816
7.952
7.972
7.992
7.976
8
7.976
7.944
7.964
7.996
7.984
7.984
7.992
8.024
7.996
7.988
7.984
7.992
8.004
7.992
8.032
8.052
8.06
8.036
8.032
8.068
8.076
8.072
8.052
8.076
8.1
8.116
8.1
8.136
8.16
8.172
8.16
8.184
8.216
8.224
8.256
8.296
8.324
8.344
8.384
8.436
8.484
8.52
8.54
8.572
8.656
8.668
8.692
8.724
8.768
8.78
8.792
8.76
8.752
8.712
8.656
8.58
8.54
8.472
8.4
8.336
8.284
8.236
8.18
8.116
8.1
8.108
8.06
8.008
7.98
7.976
8
7.972
7.972
7.996
7.976
7.96
7.96
7.956
7.964
7.98
7.964
7.972
8.004
8
7.952
7.94
7.972
7.968
7.952
7.948
7.976
7.976
7.936
7.952
7.968
7.964
7.924
7.932
7.98
7.964
7.948
7.948
7.964
7.948
7.928
7.92
7.96
7.968
7.952
7.936
7.924
7.924
7.94
7.912
7.928
7.948
7.936
7.904
7.9
7.928
7.94
7.944
7.948
7.956
7.976
7.968
7.952
7.98
8.004
7.988
8.008
8.056
8.1
8.132
8.144
8.164
8.148
8.068
8.06
8.044
8.024
8.004
7.988
7.948
7.932
7.936
7.916
7.904
7.896
7.932
7.904
7.904
7.928
7.892
7.92
7.9
7.916
7.924
7.912
7.872
7.812
7.708
7.752
7.984
8.432
9.14
9.792
10.432
10.968
11.072
11.06
10.296
8.964
8.016
7.668
7.544
7.572
7.712
7.78
7.876
7.948
7.968
7.944
7.94
7.928
7.932
7.932
7.956
7.924
7.956
7.948
7.96
7.952
7.964
7.952
7.952
7.968
7.98
8
8.032
8.008
7.984
8.004
8.044
8.02
8.044
8.044
8.072
8.088
8.084
8.068
8.108
8.136
8.132
8.172
8.204
8.228
8.204
8.232
8.272
8.312
8.328
8.356
8.408
8.468
8.476
8.496
8.556
8.604
8.62
8.688
8.7
8.732
8.74
8.708
8.72
8.704
8.66
8.58
8.508
8.472
8.4
8.328
8.272
8.236
8.208
8.14
8.116
8.072
8.052
8.02
7.98
7.976
7.992
7.984
7.984
7.976
7.992
7.988
7.956
7.972
7.956
7.988
7.98
7.984
8
7.984
7.976
7.952
7.968
8.008
7.972
7.972
7.988
8
7.988
7.972
7.98
7.988
7.976
7.992
7.992
7.992
7.98
7.956
7.968
7.972
7.956
7.972
7.972
7.98
7.964
7.948
7.94
7.948
7.952
7.94
7.936
7.976
7.956
7.928
7.932
7.936
7.956
7.952
7.936
7.948
7.936
7.948
7.916
7.944
7.936
7.948
7.924
7.928
7.984
7.992
7.968
7.976
7.992
8.028
8.004
8.016
8.056
8.116
8.128
8.152
8.164
8.148
8.068
8.044
8.04
8.048
7.984
7.976
7.964
7.956
7.944
7.912
7.908
7.924
7.932
7.908
7.896
7.928
7.94
7.916
7.912
7.924
7.928
7.916
7.86
7.78
7.776
7.932
8.268
8.776
9.416
10.028
10.624
11.048
11.132
10.928
9.88
8.564
7.82
7.54
7.532
7.648
7.796
7.892
7.968
7.98
7.976
7.96
7.944
7.916
7.936
7.968
7.952
7.948
7.956
7.988
7.968
7.952
7.98
7.984
7.988
7.98
7.98
8.024
8.004
8.004
8
8.02
8.044
8.028
8.036
8.064
8.068
8.072
8.064
8.084
8.112
8.116
8.152
8.18
8.208
8.188
8.228
8.248
8.292
8.316
8.356
8.392
8.456
8.472
8.5
8.544
8.604
8.664
8.68
8.716
8.748
8.764
8.76
8.772
8.776
8.748
8.688
8.62
8.552
8.496
8.408
8.352
8.264
8.248
8.168
8.136
8.088
8.052
8.036
7.972
7.984
7.984
7.968
7.948
7.924
7.932
7.94
7.936
7.932
7.936
7.944
7.956
7.944
7.944
7.964
7.956
7.936
7.94
7.964
7.956
7.944
7.96
7.964
7.976
7.948
7.944
7.936
7.968
7.964
7.94
7.952
7.972
7.94
7.904
7.94
7.94
7.94
7.92
7.948
7.964
7.936
7.928
7.92
7.952
7.948
7.916
7.944
7.94
7.936
7.916
7.916
7.928
7.928
7.912
7.92
7.928
7.948
7.912
7.908
7.916
7.916
7.92
7.92
7.92
7.944
7.916
7.916
7.912
7.932
7.928
7.932
7.92
7.944
7.944
7.928
7.932
7.96
7.988
7.996
8.008
8.028
8.072
8.108
8.136
8.152
8.18
8.14
8.076
8.056
8.06
8.016
7.972
7.956
7.976
7.952
7.924
7.924
7.92
7.904
7.912
7.888
7.908
7.916
7.904
7.908
7.92
7.916
7.904
7.9
7.856
7.752
7.796
8.032
8.424
9.02
9.616
10.236
10.844
11.116
11.168
10.68
9.396
8.188
7.648
7.436
7.512
7.664
7.808
7.904
7.984
7.98
7.98
7.956
7.94
7.968
7.952
7.964
7.968
7.972
7.988
7.98
7.956
7.984
8.008
7.98
7.984
7.992
8.012
8
7.992
8.008
8.052
8.048
8.02
8.044
8.068
8.088
8.064
8.072
8.1
8.124
8.112
8.14
8.156
8.196
8.192
8.192
8.24
8.296
8.308
8.328
8.36
8.432
8.452
8.464
8.524
8.588
8.616
8.648
8.692
8.732
8.772
8.78
8.788
8.784
8.772
8.716
8.664
8.604
8.576
8.492
8.428
8.372
8.312
8.22
8.18
8.152
8.1
8.056
8.02
7.988
7.988
7.988
7.972
7.968
7.968
7.952
7.952
7.92
7.96
7.964
7.94
7.94
7.968
7.972
7.956
7.944
7.932
7.964
7.956
7.948
7.972
7.984
7.976
7.952
7.948
7.96
7.964
7.96
7.92
7.972
7.956
7.932
7.916
7.96
7.964
7.952
7.924
7.956
7.968
7.94
7.924
7.92
7.936
7.948
7.936
7.936
7.952
7.94
7.92
7.896
7.932
7.944
7.932
7.908
7.928
7.924
7.92
7.9
7.924
7.92
7.9
7.9
7.94
7.912
7.916
7.908
7.888
7.924
7.912
7.916
7.916
7.916
7.912
7.908
7.928
7.908
7.944
7.892
7.924
7.912
7.94
7.9
7.892
7.932
7.94
7.928
7.944
7.948
7.976
7.984
7.984
8.004
8.068
8.108
8.136
8.136
8.164
8.096
8.028
8.036
8.036
7.988
7.952
7.952
7.944
7.928
7.892
7.9
7.908
7.932
7.908
7.892
7.916
7.916
7.892
7.884
7.892
7.92
7.928
7.892
7.8
7.736
7.836
8.108
8.608
9.328
9.968
10.588
11.056
11.128
10.964
10.032
8.66
7.812
7.528
7.456
7.552
7.708
7.84
7.928
7.988
7.98
7.972
7.968
7.964
7.96
7.984
7.98
7.956
7.952
7.988
8.008
7.988
7.992
8.012
8.012
7.996
7.992
7.992
8.008
8.032
8.044
8.032
8.06
8.052
8.064
8.076
8.116
8.112
8.104
8.124
8.156
8.14
8.16
8.176
8.216
8.232
8.244
8.268
8.288
8.348
8.344
8.388
8.42
8.48
8.516
8.54
8.596
8.644
8.672
8.684
8.748
8.8
8.812
8.816
8.812
8.816
8.744
8.692
8.64
8.58
8.536
8.46
8.404
8.348
8.272
8.196
8.168
8.112
8.116
8.08
8.048
8.028
8.048
8.02
7.992
7.98
7.996
8.004
7.996
7.988
8.008
7.992
7.964
7.972
7.988
8.004
7.992
7.98
8.004
8.012
7.992
8.004
7.996
8.024
7.988
8.008
7.996
8.008
7.984
7.996
7.992
8.012
8.016
8.012
8.008
8.004
8.024
8
7.972
8.008
8
7.968
7.996
8.012
7.992
7.988
7.976
7.98
8
7.976
7.984
8.004
7.992
7.988
7.984
7.964
7.968
7.988
7.96
7.984
7.996
7.98
7.96
7.972
7.988
7.976
7.992
7.992
8.04
8.036
8.04
8.032
8.092
8.124
8.164
8.196
8.232
8.232
8.16
8.096
8.084
8.108
8.048
8.012
8.012
8.012
7.964
7.956
7.936
7.96
7.972
7.948
7.96
7.964
7.968
7.94
7.948
7.944
7.956
7.936
7.936
7.884
7.772
7.808
8.044
8.436
9.18
9.844
10.444
11.016
11.172
11.152
10.456
9.136
8.108
7.736
7.548
7.616
7.776
7.876
7.952
8.016
8.012
8.024
8.024
8.004
8.032
8.024
8.032
8.004
8.016
8.044
8.024
8.052
8.02
8.032
8.04
8.052
8.04
8.06
8.056
8.064
8.068
8.1
8.108
8.084
8.072
8.116
8.124
8.128
8.156
8.164
8.176
8.18
8.18
8.208
8.248
8.264
8.28
8.292
8.336
8.368
8.384
8.408
8.476
8.508
8.54
8.576
8.612
8.68
8.696
8.72
8.784
8.82
8.832
8.84
8.816
8.804
8.756
8.68
8.632
8.556
8.496
8.432
8.384
8.292
8.26
8.184
8.152
8.132
8.104
8.072
8.028
8.056
8.024
7.996
7.98
8.004
8.008
7.976
8
8.008
7.992
7.976
7.968
7.984
7.992
8
8
8.004
8.032
8.004
7.992
7.988
7.984
8.016
7.988
7.996
8.004
8.028
7.98
7.984
7.992
8.008
7.984
8.012
8.008
8.02
7.992
7.996
7.98
8.004
8.008
8.004
7.984
8.012
7.992
7.976
7.972
7.972
7.992
7.984
7.972
7.996
7.98
7.976
7.96
7.968
7.976
7.976
7.96
7.98
7.976
7.976
7.964
7.952
7.964
7.972
7.952
7.98
7.976
7.988
7.944
7.952
7.964
7.972
7.984
7.964
7.992
7.98
7.968
7.944
7.98
8.016
8.032
8.044
8.048
8.084
8.136
8.156
8.196
8.208
8.196
8.116
8.096
8.088
8.056
8
8.008
8.008
8
7.976
7.948
7.956
7.956
7.932
7.94
7.952
7.96
7.944
7.932
7.936
7.928
7.924
7.92
7.884
7.804
7.848
8.06
8.42
9.008
9.608
10.232
10.804
11.1
11.176
10.708
9.476
8.264
7.688
7.472
7.556
7.696
7.828
7.948
8.02
8.004
8.012
7.964
7.984
7.98
7.992
8.004
7.98
7.988
8.016
8.016
7.984
7.988
8.008
8.036
8.02
8.044
8.024
8.052
8.02
8.02
8.032
8.064
8.052
8.052
8.088
8.112
8.104
8.096
8.104
8.164
8.176
8.168
8.188
8.224
8.244
8.24
8.252
8.296
8.336
8.364
8.4
8.46
8.492
8.5
8.56
8.608
8.656
8.704
8.716
8.748
8.812
8.816
8.82
8.84
8.848
8.808
8.744
8.684
8.64
8.584
8.496
8.416
8.356
8.328
8.24
8.172
8.152
8.112
8.072
8.044
8.024
8.036
8.012
8.004
8
7.984
7.984
7.952
7.984
7.972
8.004
7.992
7.992
8.004
7.996
7.984
7.988
7.984
8
7.996
7.996
8
7.996
7.976
7.992
7.984
7.988
7.988
7.984
8
8.008
7.992
7.976
7.98
7.996
7.992
7.956
7.992
7.996
7.992
7.968
7.972
7.988
7.98
7.976
7.976
8
8.008
7.98
7.956
7.976
7.988
7.968
7.936
7.956
7.98
7.964
7.94
7.936
7.968
7.976
7.968
7.968
7.956
7.984
7.956
7.92
7.972
7.984
7.952
7.96
7.984
7.96
7.94
7.96
7.988
8.016
8.032
8.036
8.056
8.076
8.08
8.152
8.188
8.2
8.204
8.124
8.076
8.096
8.044
7.984
7.988
8.012
8.004
7.968
7.94
7.936
7.94
7.916
7.916
7.912
7.952
7.928
7.92
7.936
7.92
7.932
7.924
7.888
7.828
7.784
7.892
8.196
8.696
9.36
9.964
10.58
11.112
11.196
11.036
10.084
8.724
7.84
7.496
7.464
7.588
7.724
7.872
7.964
8.02
8.012
7.988
7.932
7.964
7.992
8
7.98
7.984
8
8.016
7.976
8
8.02
8.032
8.012
7.996
8.056
8.056
8.04
8.024
8.036
8.072
8.068
8.052
8.096
8.116
8.1
8.096
8.116
8.14
8.14
8.152
8.184
8.192
8.22
8.204
8.244
8.268
8.324
8.336
8.372
8.424
8.472
8.492
8.52
8.568
8.612
8.66
8.696
8.744
8.784
8.812
8.808
8.812
8.82
8.8
8.736
8.696
8.648
8.568
8.476
8.42
8.376
8.304
8.228
8.184
8.16
8.116
8.068
8.012
8.032
8.012
8
7.972
7.988
7.988
7.968
7.948
7.964
7.972
7.984
7.964
7.964
7.992
7.976
7.956
7.936
7.98
8.004
7.988
7.984
7.98
7.988
7.98
7.948
7.98
7.992
7.984
7.98
7.984
8
7.976
7.96
7.968
7.992
7.98
7.952
7.964
7.972
7.976
7.952
7.948
7.964
7.972
7.964
7.964
7.972
7.992
7.948
7.924
7.964
7.976
7.94
7.944
7.964
7.976
7.94
7.936
7.932
7.964
7.932
7.936
7.948
7.96
7.968
7.936
7.924
7.936
7.944
7.948
7.936
7.948
7.952
7.948
7.94
7.96
7.984
8.008
8.02
8.06
8.108
8.12
8.172
8.172
8.192
8.148
8.08
8.068
8.052
8.028
7.972
7.956
7.988
7.956
7.936
7.928
7.952
7.96
7.932
7.908
7.908
7.932
7.92
7.924
7.916
7.936
7.916
7.888
7.824
7.752
7.808
8.048
8.492
9.212
9.864
10.492
11.012
11.124
11.032
10.256
8.88
7.932
7.612
7.484
7.524
7.672
7.808
7.908
7.98
7.992
7.984
7.984
7.968
7.952
7.98
7.992
7.992
7.964
8.012
8
7.98
7.968
8.008
8.032
8.008
8.008
8.036
8.036
8.004
8.012
8.036
8.052
8.06
8.056
8.088
8.104
8.084
8.084
8.116
8.148
8.148
8.156
8.18
8.208
8.224
8.22
8.248
8.296
8.324
8.36
8.368
8.424
8.444
8.492
8.532
8.584
8.632
8.652
8.7
8.728
8.792
8.772
8.784
8.78
8.744
8.72
8.672
8.628
8.576
8.52
8.4
8.344
8.312
8.276
8.208
8.172
8.124
8.112
8.064
8.024
8.02
8.016
7.992
7.984
7.988
7.972
7.968
7.956
7.948
7.984
7.98
7.964
7.964
7.988
7.976
7.964
7.96
7.992
8.004
7.988
7.984
8.004
7.996
7.976
7.948
7.98
7.976
7.984
7.968
8.004
7.98
7.984
7.98
7.96
7.988
7.988
7.964
7.956
7.952
7.968
7.952
7.94
7.964
7.976
7.96
7.948
7.964
7.952
7.952
7.932
7.96
7.96
7.956
7.92
7.968
7.94
7.944
7.968
7.972
8.008
8.008
8.016
8.036
8.084
8.108
8.14
8.156
8.16
8.144
8.048
8.052
8.056
8.024
7.98
7.956
7.956
7.948
7.904
7.912
7.92
7.92
7.916
7.884
7.904
7.912
7.928
7.9
7.896
7.912
7.924
7.884
7.828
7.748
7.748
7.924
8.252
8.888
9.596
10.228
10.8
11.104
11.168
10.744
9.552
8.312
7.748
7.544
7.532
7.656
7.768
7.852
7.956
7.96
7.972
7.96
7.932
7.924
7.948
7.956
7.94
7.944
7.968
7.98
7.948
7.972
7.976
8
7.996
8.008
8.012
8.028
8.012
8.02
8
8.036
8.056
8.044
8.056
8.068
8.072
8.044
8.08
8.124
8.136
8.136
8.136
8.188
8.204
8.196
8.232
8.26
8.296
8.324
8.344
8.392
8.44
8.48
8.5
8.548
8.608
8.656
8.664
8.688
8.744
8.756
8.76
8.724
8.712
8.7
8.616
8.572
8.508
8.448
8.372
8.3
8.248
8.212
8.148
8.088
8.056
8.048
8.008
7.972
7.976
7.96
7.964
7.928
7.936
7.932
7.924
7.908
7.912
7.932
7.96
7.924
7.924
7.936
7.948
7.928
7.92
7.928
7.936
7.936
7.948
7.932
7.956
7.928
7.916
7.928
7.948
7.932
7.932
7.94
7.94
7.908
7.904
7.912
7.92
7.924
7.928
7.888
7.924
7.932
7.916
7.9
7.908
7.912
7.916
7.912
7.916
7.924
7.892
7.892
7.88
7.904
7.916
7.884
7.884
7.9
7.9
7.88
7.868
7.9
7.904
7.88
7.88
7.904
7.9
7.884
7.884
7.904
7.916
7.924
7.948
7.964
7.972
7.976
7.98
8.044
8.108
8.128
8.128
8.112
8.028
8.008
7.98
7.964
7.948
7.964
7.932
7.896
7.912
7.88
7.86
7.864
7.864
7.884
7.872
7.868
7.86
7.872
7.856
7.836
7.864
7.876
7.816
7.74
7.744
7.924
8.252
8.8
9.412
10.04
10.68
11.028
11.116
10.856
9.728
8.372
7.672
7.408
7.452
7.608
7.704
7.848
7.944
7.94
7.916
7.884
7.936
7.92
7.904
7.912
7.94
7.944
7.912
7.908
7.936
7.972
7.944
7.94
7.956
7.972
7.968
7.944
7.988
7.996
7.984
8.004
8.016
8.024
8.02
8.012
8.032
8.048
8.092
8.064
8.104
8.116
8.152
8.116
8.172
8.2
8.236
8.252
8.284
8.324
8.356
8.384
8.408
8.456
8.532
8.564
8.576
8.632
8.68
8.712
8.728
8.76
8.796
8.8
8.764
8.748
8.692
8.648
8.56
8.48
8.444
8.4
8.296
8.252
8.192
8.12
8.064
8.052
8.012
8.012
7.996
7.968
7.972
7.952
7.956
7.932
7.936
7.932
7.964
7.94
7.94
7.956
7.952
7.924
7.936
7.932
7.968
7.96
7.96
7.968
7.964
7.952
7.928
7.928
7.952
7.944
7.92
7.952
7.976
7.96
7.932
7.928
7.94
7.968
7.94
7.928
7.952
7.944
7.932
7.912
7.94
7.948
7.92
7.904
7.936
7.944
7.9
7.916
7.908
7.936
7.924
7.92
7.932
7.928
7.904
7.904
7.9
7.94
7.908
7.932
7.912
7.896
7.908
7.9
7.9
7.908
7.936
7.92
7.916
7.916
7.916
7.916
7.888
7.9
7.916
7.908
7.916
7.912
7.94
7.928
7.904
7.916
7.944
7.98
7.976
7.98
8.004
8.008
8.052
8.072
8.156
8.168
8.14
8.072
8.04
8.04
8.004
7.98
7.976
7.996
7.964
7.924
7.904
7.912
7.904
7.868
7.884
7.904
7.92
7.896
7.892
7.904
7.916
7.88
7.88
7.88
7.816
7.748
7.84
8.16
8.632
9.276
9.876
10.524
11.06
11.184
11.056
10.184
8.76
7.848
7.464
7.412
7.564
7.712
7.824
7.944
7.984
7.976
7.944
7.92
7.948
7.936
7.96
7.948
7.968
7.976
7.956
7.964
7.968
7.988
8
7.98
8.008
8.012
8.02
8.016
8.004
8.008
8.052
8.056
8.036
8.068
8.088
8.064
8.048
8.108
8.124
8.136
8.14
8.16
8.176
8.192
8.208
8.216
8.276
8.304
8.312
8.348
8.4
8.416
8.44
8.492
8.548
8.616
8.636
8.676
8.712
8.776
8.764
8.776
8.792
8.84
8.792
8.74
8.704
8.66
8.58
8.504
8.436
8.38
8.324
8.248
8.212
8.156
8.1
8.044
8.04
8.044
8.004
7.976
7.972
7.976
7.98
7.932
7.94
7.96
7.972
7.96
7.956
7.964
7.96
7.96
7.96
7.96
7.988
7.968
7.968
7.976
7.968
7.968
7.94
7.964
7.956
7.984
7.952
7.944
7.964
7.956
7.928
7.948
7.948
7.968
7.948
7.952
7.936
7.956
7.928
7.936
7.944
7.96
7.924
7.932
7.928
7.928
7.92
7.912
7.916
7.936
7.94
7.928
7.908
7.908
7.904
7.9
7.92
7.916
7.936
7.908
7.916
7.92
7.936
7.884
7.9
7.92
7.92
7.916
7.908
7.896
7.928
7.92
7.876
7.916
7.9
7.912
7.9
7.908
7.9
7.924
7.908
7.884
7.912
7.924
7.9
7.908
7.904
7.928
7.884
7.88
7.908
7.94
7.94
7.948
7.956
7.992
8
8.004
8.048
8.112
8.172
8.14
8.116
8.068
8.024
7.996
7.96
7.968
7.968
7.912
7.912
7.892
7.884
7.856
7.88
7.884
7.892
7.888
7.88
7.876
7.88
7.892
7.884
7.876
7.884
7.824
7.704
7.768
8.004
8.376
9.036
9.676
10.336
10.94
11.1
11.084
10.5
9.204
8.028
7.564
7.42
7.464
7.636
7.716
7.868
7.956
7.944
7.9
7.892
7.932
7.944
7.908
7.932
7.936
7.936
7.916
7.92
7.948
7.96
7.968
7.976
7.964
7.996
7.956
7.964
7.992
8
7.988
7.988
7.996
8.028
8.036
8.012
8.032
8.084
8.112
8.08
8.1
8.132
8.156
8.124
8.152
8.188
8.212
8.224
8.244
8.28
8.348
8.368
8.368
8.42
8.492
8.54
8.552
8.592
8.656
8.668
8.72
8.724
8.784
8.772
8.748
8.732
8.708
8.628
8.556
8.488
8.452
8.396
8.312
8.244
8.224
8.152
8.1
8.028
8.024
8.044
7.992
7.956
7.948
7.956
7.928
7.92
7.92
7.944
7.94
7.92
7.88
7.932
7.924
7.912
7.912
7.932
7.976
7.92
7.924
7.936
7.948
7.936
7.928
7.94
7.964
7.936
7.948
7.94
7.972
7.928
7.92
7.924
7.952
7.96
7.916
7.924
7.928
7.948
7.912
7.908
7.932
7.944
7.928
7.928
7.936
7.932
7.908
7.908
7.904
7.92
7.932
7.888
7.92
7.928
7.892
7.888
7.904
7.928
7.916
7.884
7.904
7.912
7.92
7.884
7.904
7.908
7.944
7.9
7.92
7.94
7.976
7.94
7.956
8.004
8.06
8.076
8.1
8.152
8.176
8.132
8.064
8.044
8.06
8.044
7.98
7.984
7.992
7.944
7.896
7.916
7.912
7.916
7.88
7.904
7.92
7.9
7.892
7.896
7.892
7.936
7.924
7.884
7.864
7.788
7.684
7.828
8.136
8.692
9.472
10.028
10.692
11.1
11.144
10.864
9.852
8.512
7.792
7.58
7.492
7.624
7.728
7.832
7.916
7.976
7.82
7.96
7.968
7.94
7.968
7.968
7.94
7.948
7.976
8.004
7.964
7.984
7.992
7.992
7.972
7.996
8.016
8.052
8.032
8.024
8.06
8.056
8.032
8.032
8.08
8.112
8.1
8.112
8.128
8.14
8.156
8.144
8.172
8.204
8.236
8.236
8.244
8.308
8.32
8.316
8.368
8.428
8.448
8.48
8.54
8.6
8.624
8.636
8.672
8.732
8.78
8.788
8.796
8.804
8.796
8.772
8.704
8.644
8.6
8.552
8.476
8.404
8.368
8.272
8.204
8.172
8.14
8.12
8.056
8.04
8.036
8.024
7.98
7.972
7.98
7.996
7.988
7.96
7.976
7.98
7.952
7.944
7.972
8.008
7.976
7.984
7.972
7.988
7.996
7.972
7.96
7.98
8.008
7.98
7.96
7.976
7.988
7.976
7.968
7.98
7.98
7.992
7.972
7.96
7.964
7.964
7.928
7.952
7.956
7.968
7.956
7.928
7.972
7.948
7.928
7.94
7.956
7.96
7.948
7.936
7.948
7.944
7.924
7.904
7.908
7.952
7.916
7.928
7.94
7.952
7.924
7.928
7.908
7.928
7.944
7.94
7.948
7.936
7.96
7.94
7.972
7.996
8.024
8
8.052
8.104
8.16
8.156
8.14
8.1
8.064
8.036
8.016
7.98
7.98
7.956
7.944
7.92
7.924
7.896
7.888
