8.064
8.092
8.088
8.064
8.048
8.06
8.088
8.056
8.04
8.072
8.092
8.072
8.016
8.052
8.088
8.068
8.016
8.044
8.068
8.072
8.024
8.012
8.056
8.064
8.024
8.012
8.04
8.048
8.048
8.032
8.056
8.088
8.056
8.012
8.052
8.048
8.068
8.008
8.052
8.068
8.044
7.984
8.02
8.048
8.06
8.028
8.032
8.064
8.048
8.016
8.008
8.06
8.084
8.044
8.024
8.06
8.08
8.032
8
8.04
8.072
8.052
8.024
8.032
8.064
8.064
8.012
8.004
8.072
8.068
8.036
8.012
8.064
8.072
8.032
8.012
8.056
8.044
8.048
8.032
8.068
8.084
8.052
7.996
8.044
8.068
8.06
8.012
8.048
8.064
8.08
8.04
8.076
8.132
8.164
8.116
8.176
8.232
8.284
8.272
8.2
8.196
8.196
8.152
8.096
8.112
8.112
8.076
8.02
8.06
8.048
8.06
8.02
8.02
8.056
8.032
8
8.008
8.048
8.084
8.016
8.016
8.036
7.948
7.852
7.996
8.38
8.952
9.56
10.168
10.784
11.116
11.112
10.732
9.668
8.504
7.876
7.596
7.652
7.856
7.968
8.024
8.132
8.176
8.136
8.072
8.068
8.108
8.12
8.076
8.068
8.124
8.14
8.104
8.08
8.116
8.124
8.128
8.092
8.152
8.192
8.192
8.124
8.164
8.188
8.176
8.176
8.164
8.204
8.22
8.172
8.192
8.244
8.248
8.232
8.216
8.272
8.292
8.292
8.272
8.312
8.372
8.34
8.352
8.424
8.468
8.472
8.456
8.508
8.592
8.62
8.612
8.644
8.756
8.8
8.792
8.836
8.936
8.98
8.972
9
9.076
9.108
9.08
9.036
9.024
9.012
8.928
8.792
8.748
8.696
8.58
8.48
8.436
8.392
8.332
8.24
8.224
8.212
8.18
8.112
8.112
8.128
8.14
8.084
8.068
8.104
8.116
8.088
8.044
8.1
8.084
8.08
8.06
8.084
8.116
8.084
8.056
8.088
8.104
8.112
8.068
8.08
8.1
8.076
8.06
8.056
8.108
8.116
8.096
8.088
8.092
8.104
8.052
8.028
8.064
8.096
8.068
8.044
8.052
8.076
8.056
8.036
8.044
8.088
8.072
8.036
8.048
8.064
8.064
8.028
8.048
8.076
8.092
8.028
8.016
8.052
8.068
8.036
8
8.064
8.052
8.04
8.016
8.044
8.064
8.044
8
8.016
8.092
8.072
8.012
8.008
8.072
8.04
8.016
8.024
8.072
8.064
8.032
8.012
8.06
8.044
8.024
8
8.056
8.06
8.036
8
8.028
8.056
8.04
8.008
8.036
8.092
8.04
8.024
8.02
8.048
8.056
8.016
8.032
8.052
8.088
8.036
8.036
8.048
8.068
8.024
7.992
8.052
8.064
8.052
7.988
8.04
8.052
8.04
8.012
8.044
8.084
8.056
8.004
8.008
8.064
8.084
8.036
8.048
8.084
8.088
8.056
8.028
8.06
8.1
8.048
8.032
8.072
8.112
8.112
8.076
8.136
8.192
8.184
8.196
8.256
8.328
8.28
8.18
8.136
8.188
8.192
8.136
8.1
8.16
8.132
8.048
8
8.052
8.084
8.036
8.02
8.056
8.08
8.036
8.024
8.056
8.068
8.052
8.02
7.988
7.932
7.952
8.184
8.6
9.264
9.88
10.492
10.996
11.14
11.08
10.304
8.984
8.092
7.748
7.628
7.72
7.876
8.016
8.12
8.12
8.132
8.14
8.124
8.088
8.1
8.128
8.14
8.088
8.112
8.152
8.148
8.096
8.112
8.172
8.168
8.14
8.132
8.172
8.192
8.176
8.156
8.18
8.2
8.204
8.168
8.196
8.236
8.232
8.22
8.216
8.264
8.268
8.24
8.248
8.3
8.336
8.308
8.304
8.38
8.4
8.368
8.4
8.476
8.516
8.516
8.528
8.592
8.644
8.664
8.668
8.744
8.836
8.864
8.856
8.94
8.996
9.032
9.028
9.056
9.116
9.116
9.048
9.004
8.988
8.9
8.776
8.7
8.648
8.584
8.48
8.4
8.372
8.32
8.248
8.184
8.176
8.176
8.144
8.068
8.096
8.124
8.112
8.072
8.068
8.104
8.108
8.064
8.056
8.088
8.108
8.048
8.056
8.108
8.128
8.076
8.068
8.092
8.112
8.088
8.072
8.084
8.12
8.088
8.056
8.056
8.112
8.104
8.052
8.084
8.116
8.096
8.048
8.056
8.096
8.1
8.048
8.068
8.104
8.1
8.08
8.04
8.08
8.084
8.048
8.04
8.048
8.08
8.056
8.032
8.036
8.08
8.06
8.028
8.032
8.068
8.064
8.024
8.024
8.056
8.068
8.024
8.032
8.072
8.036
8.036
8
8.044
8.072
8.04
8.02
8.028
8.064
8.02
7.996
8.016
8.044
8.032
8.012
8.016
8.052
8.032
7.992
8
8.044
8.04
8.012
8.004
8.016
8.02
8
7.988
8.02
8.036
8.004
7.972
8
8.016
8.012
7.976
7.956
8.012
8.028
7.964
8
8.028
8.028
7.976
7.98
8.036
8.036
7.988
7.988
8.024
8.044
8.028
8.028
8.08
8.096
8.132
8.172
8.228
8.248
8.176
8.076
8.108
8.136
8.084
8.032
8.016
8.048
7.996
7.94
7.944
7.976
7.992
7.936
7.944
7.984
7.984
7.96
7.948
7.98
8
7.972
7.912
7.844
7.816
7.952
8.244
8.872
9.612
10.228
10.772
11.048
11.08
10.628
9.412
8.28
7.8
7.608
7.56
7.676
7.844
7.984
8.028
8.044
8.06
8.056
8.024
7.996
8.012
8.048
8.028
7.996
8.004
8.068
8.068
8.04
8.036
8.088
8.096
8.064
8.036
8.112
8.104
8.068
8.048
8.112
8.12
8.112
8.108
8.128
8.148
8.136
8.116
8.116
8.168
8.184
8.16
8.2
8.208
8.252
8.232
8.24
8.288
8.328
8.3
8.356
8.408
8.46
8.436
8.452
8.556
8.58
8.616
8.64
8.712
8.784
8.776
8.792
8.892
8.912
8.972
8.944
8.992
9.032
9.004
8.936
8.88
8.844
8.776
8.632
8.568
8.508
8.42
8.312
8.252
8.24
8.18
8.112
8.08
8.08
8.068
8.02
7.98
8.004
8.012
7.996
7.984
7.996
8.008
8
7.972
7.972
8.028
7.996
7.98
7.98
8.02
8.008
7.96
7.972
7.992
8.028
8
7.968
7.996
8.008
7.996
7.964
7.98
8.028
8.004
7.98
7.976
8.008
8.012
7.956
7.976
8.024
8.012
7.96
7.972
7.992
8
7.964
7.952
7.992
8.02
7.972
7.944
7.988
7.992
7.968
7.928
7.956
7.988
7.992
7.936
7.956
8.008
7.964
7.932
7.944
8.004
7.996
7.936
7.948
8.008
7.988
7.956
7.944
8.004
8.016
7.956
7.928
7.976
7.992
7.984
7.94
7.992
8.012
7.996
7.952
7.964
8.04
8.024
7.996
8.044
8.1
8.092
8.08
8.108
8.204
8.248
8.212
8.156
8.132
8.144
8.096
8.04
8.064
8.056
8.036
7.976
8.004
8.028
7.984
7.968
7.98
7.992
7.996
7.948
7.992
8
8.008
7.956
7.98
8
7.924
7.796
7.864
8.168
8.604
9.224
9.868
10.528
11.072
11.112
11.004
10.216
8.944
8.004
7.672
7.584
7.724
7.848
7.948
8.068
8.14
8.108
8.044
8.044
8.104
8.08
8.056
8.044
8.104
8.112
8.088
8.08
8.088
8.136
8.104
8.084
8.108
8.144
8.128
8.108
8.124
8.192
8.168
8.148
8.172
8.196
8.192
8.172
8.164
8.236
8.22
8.196
8.22
8.264
8.272
8.272
8.26
8.316
8.356
8.356
8.356
8.392
8.448
8.436
8.444
8.504
8.576
8.616
8.612
8.684
8.752
8.8
8.804
8.832
8.968
8.98
8.992
9.024
9.068
9.088
9.068
9.016
9.012
8.968
8.868
8.756
8.688
8.644
8.516
8.408
8.392
8.372
8.288
8.192
8.152
8.172
8.152
8.072
8.044
8.108
8.084
8.044
8.016
8.068
8.064
8.024
8.02
8.056
8.064
8.044
8.008
8.052
8.06
8.04
8.016
8.048
8.092
8.06
8.024
8.052
8.076
8.064
8.02
8.044
8.104
8.08
8.048
8.036
8.084
8.06
8.056
8.012
8.06
8.084
8.06
8.032
8.028
8.076
8.024
8.008
8.048
8.096
8.056
8.02
8.008
8.06
8.028
8.008
8.016
8.036
8.056
8.016
7.992
8.028
8.024
8.02
7.988
8.016
8.036
8.004
7.98
8.028
8.032
8.012
8
8.004
8.064
8.028
8.012
8.004
8.052
8.044
7.988
7.996
8.048
8.044
7.988
7.988
8.044
8.024
8.004
7.996
8.024
8.04
8.036
7.996
8.052
8.084
8.056
8.044
8.072
8.112
8.1
8.108
8.152
8.232
8.272
8.252
8.212
8.216
8.16
8.108
8.084
8.1
8.092
8.064
8.024
8.048
8.028
7.992
7.964
7.996
8.044
8.032
7.992
8.016
8.036
8.016
7.972
7.988
8.02
7.988
7.864
7.848
8.088
8.416
8.996
9.652
10.324
10.936
11.104
11.092
10.64
9.432
8.264
7.732
7.604
7.676
7.8
7.888
8.024
8.16
8.108
8.064
8.068
8.116
8.12
8.056
8.056
8.096
8.116
8.068
8.072
8.096
8.14
8.108
8.104
8.108
8.132
8.124
8.116
8.144
8.176
8.148
8.14
8.152
8.208
8.184
8.156
8.192
8.22
8.228
8.192
8.204
8.26
8.252
8.232
8.268
8.304
8.356
8.32
8.316
8.4
8.444
8.428
8.42
8.504
8.58
8.564
8.584
8.656
8.732
8.76
8.764
8.824
8.928
8.952
8.96
8.992
9.076
9.08
9.076
9.044
9.064
9
8.908
8.796
8.728
8.696
8.584
8.476
8.44
8.404
8.292
8.216
8.204
8.204
8.164
8.112
8.124
8.12
8.112
8.06
8.052
8.104
8.064
8.028
8.008
8.092
8.096
8.052
8.024
8.08
8.1
8.064
8.048
8.068
8.104
8.08
8.04
8.044
8.1
8.068
8.048
8.064
8.108
8.064
8.044
8.04
8.084
8.068
8.064
8.064
8.08
8.1
8.048
8.044
8.06
8.084
8.064
8.02
8.064
8.096
8.048
8.02
8.052
8.06
8.056
8.032
8.028
8.056
8.072
8.012
8.016
8.056
8.072
8.016
8.024
8.072
8.068
8.024
7.988
8.052
8.072
8.024
8.028
8.044
8.064
8.044
7.996
8.028
8.076
8.048
7.988
8.016
8.052
8.044
7.992
7.992
8.052
8.052
7.992
7.992
8.04
8.052
8.024
8
8.048
8.088
8.056
8.056
8.084
8.124
8.136
8.172
8.22
8.284
8.252
8.144
8.112
8.144
8.104
8.036
8.056
8.092
8.052
8
7.96
8.012
8.008
7.98
7.96
8
8.028
7.996
7.956
8
8.008
7.976
7.96
7.976
7.948
7.84
7.884
8.18
8.684
9.324
9.956
10.58
11.1
11.14
10.896
9.968
8.744
7.94
7.616
7.54
7.704
7.86
7.952
8.016
8.04
8.092
8.06
8.02
8.048
8.1
8.068
8.032
8.04
8.064
8.08
8.036
8.056
8.108
8.1
8.072
8.068
8.108
8.104
8.08
8.096
8.136
8.152
8.116
8.084
8.136
8.148
8.156
8.128
8.148
8.22
8.208
8.168
8.184
8.26
8.26
8.22
8.264
8.32
8.34
8.312
8.328
8.388
8.436
8.416
8.452
8.512
8.58
8.58
8.592
8.684
8.728
8.764
8.792
8.856
8.956
8.952
8.964
8.992
9.052
9.044
8.992
8.936
8.92
8.848
8.708
8.62
8.556
8.496
8.424
8.316
8.292
8.248
8.16
8.112
8.104
8.076
8.068
8.016
7.992
8.052
7.976
7.972
7.956
7.98
8.016
7.936
7.988
8.032
8.02
7.98
7.964
8.004
8.02
7.992
7.972
7.992
8.032
7.976
7.968
8
8.032
8.008
7.972
7.976
8.032
8.008
7.96
7.988
8.024
8.004
7.964
7.968
8.016
7.992
7.964
7.948
7.992
8.024
7.952
7.948
7.98
7.988
7.968
7.924
7.944
8.016
7.968
7.936
7.94
7.984
7.96
7.92
7.936
7.98
7.964
7.94
7.924
7.952
7.98
7.928
7.928
7.98
7.976
7.936
7.908
7.944
7.968
7.944
7.9
7.932
7.98
7.932
7.9
7.92
7.964
7.94
7.892
7.928
7.984
7.972
7.904
7.908
7.948
7.952
7.9
7.908
7.936
7.956
7.908
7.9
7.944
7.964
7.912
7.908
7.944
7.972
7.944
7.928
7.96
8
7.996
7.98
7.98
8.076
8.12
8.112
8.156
8.18
8.116
8.056
8.024
8.064
8.024
7.968
7.944
7.94
7.944
7.9
7.884
7.896
7.96
7.912
7.872
7.892
7.948
7.908
7.876
7.884
7.932
7.908
7.856
7.768
7.74
7.852
8.164
8.688
9.412
10.044
10.636
10.972
11.032
10.744
9.636
8.368
7.752
7.552
7.496
7.604
7.732
7.9
7.96
7.952
7.976
8.004
7.956
7.94
7.94
7.992
7.984
7.952
7.94
7.984
7.996
7.976
7.96
8
8.02
7.964
7.98
8.012
8.032
8
7.992
7.992
8.048
8.028
8.016
8.032
8.072
8.052
8.04
8.036
8.108
8.136
8.092
8.112
8.152
8.168
8.144
8.156
8.204
8.272
8.24
8.264
8.32
8.368
8.376
8.384
8.444
8.536
8.548
8.58
8.608
8.708
8.752
8.744
8.776
8.852
8.904
8.88
8.912
8.944
8.916
8.828
8.768
8.72
8.68
8.532
8.424
8.396
8.344
8.244
8.156
8.108
8.112
8.068
7.984
7.968
8
7.952
7.896
7.888
7.92
7.924
7.868
7.872
7.924
7.904
7.896
7.888
7.92
7.92
7.888
7.864
7.884
7.912
7.876
7.848
7.9
7.916
7.904
7.868
7.864
7.908
7.9
7.86
7.876
7.9
7.9
7.864
7.88
7.892
7.88
7.844
7.86
7.872
7.9
7.856
7.82
7.856
7.86
7.836
7.8
7.844
7.864
7.84
7.812
7.828
7.848
7.84
7.792
7.824
7.864
7.86
7.788
7.792
7.812
7.844
7.812
7.808
7.836
7.84
7.78
7.784
7.816
7.84
7.808
7.816
7.832
7.876
7.836
7.836
7.848
7.892
7.876
7.872
7.896
8.004
8.036
8.004
8.004
7.988
7.948
7.9
7.896
7.896
7.892
7.82
7.768
7.792
7.808
7.784
7.768
7.796
7.796
7.78
7.752
7.752
7.796
7.788
7.748
7.756
7.788
7.8
7.708
7.608
7.576
7.768
8.056
8.652
9.448
10.092
10.628
10.872
10.88
10.412
9.128
8.048
7.616
7.476
7.424
7.512
7.64
7.8
7.896
7.872
7.832
7.868
7.86
7.828
7.836
7.856
7.9
7.86
7.844
7.892
7.92
7.884
7.88
7.896
7.948
7.876
7.912
7.9
7.952
7.924
7.904
7.928
7.98
7.984
7.964
7.944
8
8.008
7.976
7.988
8.044
8.072
8.032
8.044
8.092
8.116
8.1
8.116
8.164
8.208
8.208
8.22
8.288
8.316
8.38
8.36
8.408
8.508
8.504
8.504
8.56
8.66
8.712
8.716
8.804
8.848
8.904
8.828
8.844
8.852
8.812
8.728
8.644
8.584
8.532
8.412
8.328
8.256
8.212
8.128
8.056
8.044
8.056
8
7.912
7.932
7.944
7.944
7.876
7.896
7.916
7.932
7.884
7.88
7.908
7.924
7.884
7.892
7.924
7.948
7.92
7.892
7.908
7.952
7.908
7.888
7.928
7.956
7.952
7.904
7.904
7.964
7.956
7.908
7.928
7.964
7.968
7.896
7.916
7.948
7.948
7.932
7.928
7.932
7.956
7.924
7.9
7.908
7.928
7.94
7.892
7.928
7.952
7.94
7.896
7.888
7.932
7.916
7.9
7.908
7.936
7.948
7.9
7.884
7.916
7.948
7.916
7.92
7.924
7.936
7.928
7.904
7.94
7.972
7.984
7.952
7.976
8.016
8.02
7.988
8.024
8.128
8.18
8.128
8.136
8.112
8.072
8
8.004
7.992
8.028
7.964
7.944
7.936
7.96
7.92
7.896
7.908
7.94
7.948
7.908
7.92
7.964
7.94
7.876
7.904
7.964
7.956
7.852
7.752
7.804
8.056
8.348
9
9.66
10.36
10.872
11.028
11.056
10.464
9.152
8.072
7.7
7.612
7.656
7.736
7.856
8.024
8.068
7.996
7.984
8.048
8.048
7.972
7.968
8.016
8.028
7.988
8.02
8.032
8.084
8.044
8.028
8.072
8.096
8.068
8.044
8.092
8.128
8.1
8.064
8.116
8.14
8.14
8.112
8.128
8.18
8.188
8.144
8.144
8.208
8.208
8.196
8.208
8.256
8.308
8.276
8.276
8.34
8.368
8.388
8.388
8.448
8.528
8.54
8.536
8.604
8.668
8.708
8.712
8.784
8.88
8.932
8.896
8.952
9.024
9.064
9.024
9.024
9.028
9.004
8.868
8.804
8.724
8.676
8.556
8.468
8.404
8.388
8.308
8.188
8.18
8.184
8.112
8.064
8.08
8.112
8.084
8.028
8.02
8.06
8.064
8.032
8.044
8.064
8.088
8.04
8.024
8.06
8.08
8.064
8.028
8.064
8.096
8.08
8.02
8.056
8.096
8.104
8.036
8.048
8.096
8.1
8.04
8.052
8.064
8.088
8.056
8.052
8.08
8.076
8.044
8.036
8.056
8.096
8.06
8.044
8.056
8.092
8.072
8.036
8.044
8.076
8.064
8.036
8.044
8.068
8.052
8.032
8.052
8.072
8.104
8.036
8.04
8.068
8.084
8.04
8.028
8.056
8.084
8.056
8.032
8.036
8.084
8.068
8.02
8.044
8.1
8.116
8.036
8.044
8.08
8.088
8.036
8.024
8.08
8.08
8.028
8.036
8.08
8.1
8.076
8.048
8.072
8.112
8.096
8.112
8.108
8.168
8.152
8.14
8.216
8.296
8.336
8.276
8.224
8.22
8.184
8.128
8.116
8.156
8.132
8.104
8.064
8.052
8.072
8.052
8.024
8.064
8.092
8.048
8.036
8.076
8.096
8.076
8.04
8.044
8.064
8.02
7.872
7.968
8.26
8.704
9.26
9.916
10.588
11.1
11.12
11.056
10.276
9
8.048
7.716
7.668
7.824
7.928
8.008
8.148
8.196
8.152
8.092
8.12
8.164
8.148
8.096
8.116
8.156
8.14
8.116
8.132
8.176
8.176
8.148
8.132
8.192
8.2
8.176
8.16
8.204
8.236
8.228
8.16
8.188
8.26
8.236
8.216
8.272
8.3
8.28
8.248
8.272
8.296
8.344
8.304
8.332
8.38
8.396
8.364
8.384
8.452
8.508
8.48
8.524
8.58
8.656
8.64
8.644
8.712
8.8
8.836
8.848
8.904
8.988
9.012
9.008
9.064
9.132
9.14
9.116
9.076
9.092
9.028
8.912
8.8
8.752
8.692
8.588
8.492
8.48
8.42
8.34
8.252
8.24
8.26
8.236
8.152
8.16
8.192
8.168
8.088
8.108
8.172
8.16
8.1
8.128
8.156
8.156
8.132
8.116
8.16
8.176
8.14
8.12
8.144
8.184
8.136
8.12
8.148
8.168
8.156
8.108
8.14
8.172
8.16
8.104
8.124
8.16
8.164
8.104
8.12
8.144
8.14
8.088
8.112
8.128
8.168
8.136
8.076
8.128
8.152
8.112
8.064
8.108
8.14
8.12
8.092
8.112
8.14
8.14
8.076
8.1
8.14
8.12
8.076
8.092
8.12
8.128
8.068
8.072
8.12
8.132
8.104
8.076
8.108
8.128
8.084
8.048
8.096
8.116
8.112
8.076
8.096
8.124
8.1
8.068
8.088
8.124
8.124
8.064
8.08
8.104
8.104
8.076
8.076
8.104
8.14
8.096
8.064
8.092
8.128
8.1
8.068
8.124
8.152
8.144
8.084
8.144
8.196
8.2
8.16
8.216
8.292
8.352
8.3
8.324
8.288
8.248
8.204
8.192
8.176
8.18
8.136
8.092
8.108
8.104
8.088
8.064
8.1
8.124
8.096
8.036
8.072
8.088
8.104
8.056
8.068
8.092
8.096
7.964
7.892
8.032
8.356
8.772
9.42
10.084
10.696
11.128
11.14
11.008
10.06
8.764
7.932
7.716
7.712
7.812
7.896
8.052
8.196
8.2
8.132
8.132
8.18
8.172
8.12
8.132
8.164
8.172
8.14
8.14
8.164
8.196
8.176
8.136
8.192
8.232
8.196
8.184
8.192
8.244
8.22
8.176
8.232
8.256
8.256
8.224
8.224
8.304
8.3
8.256
8.276
8.308
8.34
8.316
8.316
8.372
8.4
8.384
8.364
8.44
8.48
8.488
8.472
8.556
8.604
8.632
8.612
8.684
8.764
8.808
8.808
8.848
8.94
8.976
8.988
9.032
9.108
9.148
9.136
9.092
9.108
9.084
9
8.888
8.844
8.776
8.688
8.556
8.512
8.476
8.412
8.3
8.284
8.284
8.252
8.16
8.16
8.176
8.156
8.112
8.1
8.152
8.144
8.12
8.116
8.112
8.152
8.128
8.096
8.124
8.164
8.136
8.068
8.136
8.152
8.14
8.096
8.14
8.172
8.144
8.092
8.104
8.136
8.152
8.108
8.108
8.136
8.16
8.128
8.104
8.144
8.144
8.1
8.076
8.124
8.148
8.112
8.064
8.092
8.14
8.112
8.06
8.096
8.132
8.14
8.068
8.092
8.1
8.108
8.068
8.096
8.108
8.116
8.08
8.056
8.088
8.128
8.068
8.06
8.104
8.12
8.088
8.044
8.084
8.104
8.104
8.04
8.064
8.12
8.092
8.044
8.056
8.092
8.108
8.044
8.076
8.108
8.104
8.064
8.044
8.088
8.088
8.084
8.052
8.092
8.112
8.068
8.016
8.064
8.088
8.092
8.052
8.08
8.124
8.104
8.036
8.048
8.068
8.092
8.068
8.08
8.14
8.156
8.128
8.104
8.192
8.264
8.284
8.256
8.344
8.308
8.192
8.148
8.16
8.164
8.148
8.096
8.084
8.12
8.092
8.02
8.032
8.076
8.068
8.056
8.028
8.064
8.084
8.048
8.024
8.072
8.1
8.04
7.936
7.896
7.944
8.18
8.52
9.18
9.86
10.472
10.992
11.128
11.14
10.448
9.088
8.112
7.768
7.66
7.716
7.84
7.976
8.128
8.148
8.108
8.132
8.144
8.12
8.076
8.116
8.14
8.12
8.092
8.12
8.164
8.164
8.1
8.116
8.172
8.16
8.1
8.136
8.184
8.196
8.14
8.124
8.2
8.22
8.172
8.172
8.208
8.232
8.224
8.192
8.248
8.268
8.264
8.22
8.304
8.344
8.348
8.288
8.328
8.404
8.412
8.384
8.432
8.516
8.528
8.528
8.548
8.644
8.692
8.7
8.728
8.824
8.88
8.908
8.884
8.972
9.048
9.044
9.016
9.064
9.104
9.036
8.928
8.888
8.864
8.74
8.608
8.564
8.548
8.464
8.352
8.284
8.268
8.236
8.16
8.128
8.136
8.14
8.096
8.052
8.064
8.104
8.068
8.036
8.052
8.1
8.08
8.028
8.036
8.092
8.088
8.052
8.068
8.096
8.076
8.048
8.032
8.068
8.072
8.044
8.032
8.088
8.084
8.036
8.016
8.048
8.056
8.052
8.016
8.056
8.072
8.06
7.992
8.032
8.08
8.056
8.008
8
8.04
8.044
7.992
7.964
8.024
8.016
8.012
7.988
8.032
8.052
8.004
7.968
8.004
8.032
8.024
7.944
8
8.04
7.992
7.96
7.964
8.012
8.02
7.964
7.956
8.028
7.992
7.944
7.94
8
8.016
7.968
7.96
7.996
7.992
7.96
7.944
7.98
8.024
8
7.948
7.984
8.008
7.98
7.952
7.972
8.028
7.98
7.94
7.952
7.972
7.98
7.944
7.948
7.98
7.988
7.98
7.948
7.992
8.012
7.98
7.928
8.004
8.02
8
7.924
7.976
8
7.984
7.948
7.96
8.024
8
7.984
7.992
8.036
8.068
8.028
8.056
8.132
8.208
8.212
8.184
8.2
8.144
8.08
8.036
8.076
8.072
8.024
7.952
7.992
8
7.964
7.932
7.944
8.008
7.992
7.936
7.936
7.968
7.972
7.932
7.92
7.996
7.992
7.88
7.756
7.832
8.12
8.484
9.12
9.824
10.496
10.984
11.012
10.992
10.244
8.928
7.952
7.64
7.572
7.648
7.728
7.86
8.02
8.068
7.976
7.96
8.044
8.048
7.996
7.964
8.004
8.036
7.984
7.976
8.032
8.056
8.04
8.004
8.04
8.064
8.044
8.028
8.056
8.104
8.068
8.04
8.028
8.084
8.116
8.064
8.068
8.144
8.156
8.124
8.1
8.156
8.204
8.156
8.144
8.216
8.256
8.244
8.22
8.244
8.316
8.328
8.316
8.364
8.452
8.468
8.44
8.488
8.612
8.632
8.604
8.672
8.752
8.82
8.808
8.832
8.94
8.988
8.96
8.936
8.976
8.964
8.872
8.784
8.744
8.704
8.6
8.48
8.416
8.388
8.3
8.192
8.136
8.152
8.104
8.02
7.968
8.016
8.004
7.944
7.928
7.976
7.98
7.952
7.9
7.944
7.98
7.928
7.9
7.928
7.98
7.94
7.888
7.928
7.972
7.972
7.924
7.908
7.96
7.98
7.932
7.88
7.944
7.948
7.92
7.872
7.936
7.964
7.912
7.888
7.904
7.94
7.924
7.876
7.92
7.96
7.924
7.884
7.884
7.928
7.912
7.86
7.86
7.912
7.888
7.864
7.86
7.916
7.916
7.872
7.848
7.884
7.892
7.892
7.848
7.856
7.912
7.876
7.828
7.844
7.9
7.884
7.824
7.848
7.892
7.868
7.84
7.836
7.884
7.896
7.836
7.828
7.88
7.88
7.832
7.816
7.868
7.9
7.856
7.8
7.852
7.904
7.876
7.816
7.844
7.904
7.864
7.812
7.856
7.92
7.912
7.896
7.888
7.956
8.008
7.996
8.016
8.104
8.1
7.992
7.932
8
7.988
7.928
7.856
7.876
7.896
7.844
7.808
7.832
7.896
7.864
7.8
7.8
7.88
7.856
7.812
7.824
7.872
7.852
7.816
7.772
7.744
7.652
7.7
7.956
8.54
9.316
9.924
10.468
10.896
10.964
10.672
9.576
8.4
7.8
7.556
7.448
7.56
7.724
7.836
7.872
7.908
7.944
7.924
7.86
7.852
7.904
7.924
7.888
7.872
7.9
7.924
7.88
7.844
7.892
7.948
7.916
7.896
7.92
7.992
7.952
7.936
7.936
8
8
7.96
7.956
8.008
8.028
7.964
7.968
8.048
8.056
8.048
8.04
8.104
8.12
8.088
8.088
8.116
8.188
8.188
8.18
8.232
8.288
8.296
8.288
8.336
8.444
8.46
8.44
8.492
8.576
8.644
8.632
8.656
8.764
8.832
8.824
8.812
8.868
8.896
8.832
8.756
8.728
8.696
8.6
8.448
8.412
8.372
8.272
8.176
8.116
8.116
8.084
7.988
7.948
7.972
7.952
7.896
7.872
7.94
7.948
7.868
7.84
7.904
7.912
7.892
7.868
7.912
7.96
7.928
7.88
7.904
7.932
7.94
7.884
7.896
7.96
7.944
7.884
7.868
7.952
7.928
7.884
7.864
7.94
7.964
7.9
7.888
7.936
7.924
7.904
7.888
7.924
7.944
7.932
7.88
7.908
7.944
7.92
7.88
7.892
7.94
7.94
7.88
7.872
7.928
7.928
7.892
7.864
7.932
7.94
7.9
7.836
7.912
7.936
7.876
7.896
7.88
7.968
7.892
7.844
7.896
7.948
7.912
7.892
7.896
7.96
7.932
7.872
7.86
7.932
7.92
7.904
7.888
7.964
7.984
7.936
7.948
7.992
8.048
8.06
8.088
8.14
8.176
8.076
7.988
7.996
8.048
8.004
7.948
7.936
7.984
7.948
7.88
7.856
7.908
7.9
7.884
7.848
7.912
7.912
7.864
7.844
7.888
7.912
7.896
7.852
7.84
7.776
7.788
7.968
8.372
9.052
9.664
10.272
10.832
11.028
11
10.308
9.016
8.056
7.68
7.52
7.548
7.74
7.88
7.92
7.968
7.996
8.008
7.972
7.924
7.952
7.996
7.968
7.928
7.956
8.012
8
7.952
7.956
8.028
8.02
7.956
7.956
8.032
8.04
8
7.976
8.048
8.068
8.02
7.984
8.06
8.096
8.084
8.044
8.096
8.14
8.12
8.084
8.128
8.2
8.18
8.156
8.176
8.252
8.284
8.24
8.272
8.352
8.4
8.368
8.388
8.496
8.548
8.548
8.58
8.652
8.748
8.736
8.744
8.832
8.9
8.92
8.888
8.952
8.98
8.952
8.844
8.788
8.756
8.664
8.548
8.468
8.456
8.372
8.256
8.18
8.168
8.136
8.068
8.028
8.032
8.048
7.992
7.956
7.956
7.984
7.948
7.908
7.948
7.976
7.956
7.908
7.9
7.98
7.968
7.924
7.936
7.96
7.972
7.9
7.916
7.976
7.988
7.944
7.892
7.956
7.984
7.912
7.892
7.952
7.984
7.92
7.9
7.932
7.992
7.964
7.896
7.904
7.976
7.928
7.896
7.896
7.96
7.96
7.912
7.88
7.944
7.944
7.9
7.892
7.932
7.956
7.892
7.872
7.912
7.928
7.912
7.876
7.892
7.92
7.904
7.864
7.876
7.924
7.948
7.892
7.876
7.92
7.924
7.884
7.86
7.904
7.924
7.884
7.856
7.896
7.924
7.88
7.852
7.86
7.92
7.904
7.876
7.872
7.94
7.916
7.884
7.88
7.96
7.968
7.94
7.94
7.988
8.024
8.024
8.056
8.144
8.16
8.1
8.008
8.004
8.044
7.952
7.916
7.948
7.972
7.916
7.856
7.848
7.9
7.896
7.844
7.824
7.896
7.916
7.848
7.852
7.896
7.904
7.848
7.844
7.844
7.776
7.744
7.936
8.34
8.98
9.576
10.192
10.768
10.992
10.96
10.34
9.088
8.072
7.628
7.424
7.504
7.736
7.824
7.904
7.944
7.976
7.98
7.904
7.904
7.964
7.976
7.936
7.904
7.952
7.976
7.96
7.924
7.932
8.02
7.984
7.944
7.968
8.024
8.008
7.96
7.968
8.044
8.036
8.004
8
8.068
8.084
8.048
8.056
8.108
8.14
8.104
8.08
8.132
8.156
8.148
8.132
8.172
8.256
8.252
8.228
8.272
8.34
8.352
8.34
8.4
8.496
8.532
8.5
8.532
8.648
8.708
8.712
8.768
8.832
8.884
8.896
8.9
8.96
8.996
8.956
8.872
8.836
8.816
8.688
8.56
8.496
8.472
8.396
8.292
8.2
8.24
8.156
8.064
8.028
8.044
8.036
7.992
7.976
7.996
7.992
7.952
7.912
7.956
8
7.956
7.928
7.952
8
7.956
7.92
7.948
7.984
7.988
7.952
7.948
7.98
7.988
7.916
7.932
7.988
8
7.932
7.944
7.988
8
7.944
7.924
7.952
7.996
7.968
7.928
7.952
7.972
7.956
7.924
7.904
7.984
7.96
7.912
7.94
7.988
7.968
7.912
7.916
7.972
7.98
7.904
7.912
7.94
7.972
7.908
7.872
7.956
7.956
7.94
7.908
7.908
7.976
7.936
7.9
7.924
7.964
7.944
7.916
7.92
7.964
7.94
7.904
7.904
7.96
7.968
7.936
7.924
7.944
7.972
7.924
7.904
7.932
7.976
7.952
7.92
7.928
7.976
7.928
7.892
7.928
7.984
7.988
7.932
7.936
7.98
7.98
7.928
7.924
7.964
7.984
7.956
7.92
7.976
7.996
7.964
7.912
7.976
8
7.96
7.912
7.944
7.98
7.984
7.932
7.948
7.992
7.984
7.92
7.912
7.996
7.988
7.944
7.944
7.992
8.004
7.936
7.932
7.988
8.004
7.968
7.928
7.968
8.016
7.972
7.94
7.96
8.004
7.996
7.948
7.964
8.04
8.032
7.992
8.016
8.072
8.1
8.1
8.148
8.232
8.236
8.112
8.052
8.104
8.1
8.032
8.004
8.028
8.04
7.98
7.928
7.936
7.988
7.956
7.952
7.944
7.976
7.984
7.944
7.928
7.972
7.972
7.944
7.92
7.832
7.848
7.996
8.352
8.972
9.648
10.22
10.8
11.008
11.072
10.576
9.364
8.228
7.792
7.596
7.608
7.748
7.92
8.032
8.06
8.02
8.064
8.072
8.02
8.032
8.052
8.044
7.992
7.984
8.044
8.04
8.032
8.016
8.028
8.076
8.048
8.02
8.036
8.112
8.108
8.048
8.068
8.132
8.116
8.072
8.076
8.144
8.156
8.1
8.116
8.14
8.192
8.152
8.16
8.196
8.244
8.212
8.208
8.26
8.284
8.288
8.304
8.344
8.416
8.42
8.412
8.452
8.556
8.556
8.564
8.624
8.72
8.776
8.752
8.788
8.872
8.928
8.912
8.952
9.016
9.056
8.972
8.944
8.904
8.876
8.768
8.656
8.604
8.584
8.48
8.352
8.304
8.308
8.224
8.132
8.116
8.152
8.108
8.036
8.008
8.04
8.024
8
7.98
8.016
8.032
7.992
7.96
8
8.04
8.008
7.984
8.008
8.044
8.008
7.976
7.972
8.04
8.024
7.984
7.992
8.036
8.028
7.992
7.972
8.028
8.02
7.988
7.988
8.008
8.052
7.98
7.936
7.98
8.004
7.98
7.94
7.964
8.004
7.968
7.904
7.948
7.976
7.996
7.936
7.952
8.004
7.984
7.916
7.928
7.952
7.988
7.936
7.932
7.948
7.98
7.944
7.904
7.94
7.972
7.924
7.908
7.912
7.964
7.952
7.896
7.908
7.952
7.932
7.904
7.908
7.96
7.964
7.884
7.896
7.916
7.936
7.9
7.904
7.928
7.956
7.904
7.86
7.908
7.96
7.896
7.88
7.888
7.94
7.9
7.876
7.884
7.94
7.92
7.888
7.892
7.92
7.932
7.88
7.896
7.932
7.904
7.896
7.864
7.896
7.932
7.856
7.864
7.876
7.936
7.876
7.848
7.88
7.928
7.88
7.868
7.892
7.952
7.936
7.924
7.928
7.952
8.016
8.012
8.048
8.144
8.132
8.04
7.968
7.988
8.004
7.884
7.868
7.896
7.932
7.88
7.828
7.84
7.896
7.868
7.824
7.848
7.9
7.892
7.848
7.848
7.868
7.872
7.836
7.76
7.732
7.712
7.852
8.212
8.868
9.572
10.144
10.68
10.904
10.96
10.388
9.132
8.084
7.676
7.488
7.468
7.636
7.784
7.876
7.916
7.9
7.94
7.948
7.868
7.896
7.912
7.952
7.888
7.88
7.908
7.972
7.924
7.912
7.932
7.968
7.936
7.896
7.916
7.964
7.976
7.928
7.952
8.024
8.012
7.948
7.952
8.012
8.012
7.968
7.984
8.052
8.056
8.004
8.02
8.068
8.104
8.08
8.104
8.128
8.192
8.164
8.16
8.208
8.276
8.3
8.272
8.308
8.388
8.428
8.428
8.48
8.572
8.608
8.616
8.64
8.748
8.812
8.78
8.8
8.832
8.872
8.832
8.792
8.768
8.72
8.62
8.472
8.424
8.392
8.304
8.188
8.14
8.12
8.06
7.956
7.928
7.968
7.944
7.868
7.876
7.908
7.896
7.856
7.808
7.864
7.868
7.868
7.844
7.828
7.9
7.876
7.808
7.86
7.888
7.884
7.832
7.876
7.88
7.876
7.828
7.82
7.876
7.884
7.828
7.84
7.876
7.88
7.812
7.784
7.824
7.872
7.832
7.808
7.812
7.856
7.84
7.796
7.796
7.864
7.828
7.8
7.808
7.832
7.812
7.768
7.752
7.836
7.824
7.78
7.776
7.812
7.812
7.784
7.764
7.804
7.816
7.792
7.768
7.78
7.848
7.816
7.796
7.832
7.896
7.884
7.856
7.908
7.988
8.028
7.984
7.996
7.988
7.964
7.888
7.88
7.86
7.868
7.808
7.796
7.8
7.828
7.78
7.752
7.744
7.8
7.756
7.716
7.776
7.8
7.78
7.748
7.768
7.808
7.776
7.68
7.6
7.588
7.792
8.084
8.7
9.476
10.12
10.628
10.864
10.9
10.412
9.12
8.04
7.648
7.528
7.484
7.584
7.7
7.84
7.892
7.824
7.824
7.884
7.864
7.804
7.824
7.868
7.872
7.832
7.84
7.868
7.904
7.86
7.856
7.88
7.928
7.86
7.856
7.912
7.928
7.912
7.892
7.908
7.96
7.932
7.904
7.952
7.992
8
7.976
7.984
8.024
8.056
8.004
8.016
8.072
8.104
8.092
8.076
8.14
8.196
8.144
8.156
8.232
8.292
8.316
8.308
8.388
8.468
8.488
8.492
8.564
8.648
8.688
8.676
8.744
8.812
8.852
8.808
8.796
8.82
8.784
8.68
8.592
8.552
8.472
8.332
8.252
8.212
8.196
8.096
8.028
8
8.012
7.94
7.876
7.888
7.916
7.884
7.82
7.836
7.86
7.872
7.808
7.792
7.844
7.876
7.804
7.812
7.824
7.864
7.832
7.812
7.836
7.884
7.848
7.792
7.856
7.844
7.836
7.804
7.832
7.864
7.868
7.816
7.82
7.856
7.868
7.816
7.792
7.848
7.856
7.816
7.78
7.82
7.844
7.824
7.808
7.836
7.848
7.828
7.8
7.832
7.844
7.864
7.808
7.82
7.868
7.84
7.808
7.804
7.844
7.864
7.824
7.82
7.868
7.884
7.836
7.824
7.892
7.932
7.88
7.892
7.928
8.024
8.028
8.024
8.104
8.072
8.024
7.944
7.952
7.992
7.944
7.872
7.888
7.876
7.9
7.836
7.836
7.856
7.88
7.836
7.808
7.852
7.864
7.844
7.812
7.856
7.872
7.832
7.812
7.792
7.708
7.704
7.924
8.328
9.028
9.668
10.248
10.784
10.96
10.972
10.288
9.032
8.064
7.716
7.552
7.576
7.736
7.852
7.896
7.936
7.952
7.956
7.924
7.876
7.912
7.932
7.932
7.896
7.94
7.932
7.94
7.908
7.924
7.98
7.972
7.944
7.992
8.056
8.06
7.976
7.924
7.932
7.968
7.988
7.964
8.016
8.084
8.052
8.008
8.064
8.084
8.108
8.068
8.08
8.124
8.144
8.104
8.156
8.212
8.284
8.208
8.216
8.292
8.356
8.348
8.344
8.416
8.476
8.52
8.54
8.596
8.692
8.672
8.7
8.784
8.848
8.86
8.852
8.856
8.872
8.856
8.74
8.7
8.64
8.576
8.444
8.348
8.3
8.272
8.152
8.092
8.072
8.072
8.004
7.944
7.948
7.952
7.904
7.868
7.904
7.936
7.9
7.86
7.884
7.908
7.908
7.852
7.876
7.884
7.928
7.86
7.868
7.904
7.9
7.856
7.868
7.88
7.94
7.88
7.856
7.896
7.912
7.892
7.86
7.9
7.908
7.912
7.88
7.888
7.92
7.908
7.872
7.86
7.912
7.916
7.884
7.852
7.908
7.932
7.872
7.884
7.908
7.912
7.9
7.852
7.868
7.92
7.876
7.86
7.872
7.908
7.908
7.848
7.852
7.912
7.9
7.868
7.864
7.912
7.952
7.896
7.896
7.948
7.948
7.956
7.924
7.98
8.04
8.024
8.04
8.132
8.124
8.112
8.02
8.016
8.024
7.984
7.94
7.948
7.964
7.952
7.888
7.86
7.912
7.928
7.868
7.84
7.9
7.92
7.876
7.876
7.896
7.912
7.872
7.848
7.86
7.824
7.736
7.8
8.144
8.624
9.212
9.792
10.408
10.896
11.016
10.876
9.988
8.732
7.948
7.608
7.588
7.744
7.876
7.924
7.98
8.024
8.004
7.952
7.92
7.936
7.996
7.968
7.932
7.972
8
7.984
7.924
7.952
7.996
8.004
7.972
7.98
7.988
8.036
7.984
7.98
8.04
8.068
8.036
8.032
8.068
8.084
8.032
8.044
8.1
8.128
8.12
8.108
8.14
8.168
8.184
8.152
8.176
8.24
8.26
8.244
8.264
8.332
8.356
8.34
8.384
8.488
8.532
8.524
8.556
8.64
8.688
8.704
8.752
8.792
8.896
8.892
8.892
8.94
8.976
8.944
8.868
8.82
8.756
8.708
8.56
8.484
8.448
8.376
8.244
8.22
8.2
8.192
8.072
8.028
8.044
8.036
7.992
7.968
8.004
8.028
7.988
7.952
7.96
8
7.984
7.936
7.968
8.02
8.016
7.948
7.96
7.972
8.008
7.964
7.968
8.008
8.008
7.972
7.96
7.964
7.996
7.98
7.952
7.984
7.988
7.968
7.94
7.968
8.004
7.992
7.944
7.968
8
8
7.944
7.94
7.992
8.004
7.936
7.968
7.976
8.004
7.96
7.936
7.948
7.988
7.972
7.936
7.968
7.984
7.944
7.924
7.956
7.964
7.972
7.94
7.948
7.98
7.972
7.924
7.928
7.992
8.016
8.008
8
8.024
8.044
8.004
8.028
8.056
8.164
8.192
8.2
8.2
8.152
8.08
8.024
8.052
8.052
8.036
7.996
8.012
8.004
7.992
7.932
7.948
7.948
7.98
7.952
7.936
7.976
7.988
7.908
7.92
7.944
7.984
7.94
7.9
7.832
7.828
7.96
8.228
8.772
9.472
10.068
10.652
11.004
11.08
10.768
9.616
8.388
7.8
7.612
7.552
7.72
7.852
7.98
8.056
8.032
8.052
8.048
8.028
8.008
8.044
8.032
8.032
7.992
8.028
8.072
8.076
8.024
8.044
8.064
8.06
8.048
8.048
8.096
8.116
8.076
8.068
8.12
8.124
8.096
8.076
8.136
8.164
8.14
8.14
8.14
8.172
8.192
8.164
8.184
8.256
8.268
8.228
8.244
8.32
8.356
8.332
8.368
8.444
8.48
8.464
8.496
8.588
8.636
8.632
8.688
8.776
8.832
8.864
8.868
8.94
8.984
8.996
8.996
9.004
9.004
8.968
8.84
8.804
8.704
8.632
8.524
8.456
8.436
8.364
8.252
8.212
8.196
8.156
8.104
8.068
8.084
8.088
8.036
8
8.016
8.016
8.004
8.012
8.024
8.044
8.024
7.988
7.976
8.016
8.016
7.992
8.008
8.032
8.04
7.968
7.98
8.012
8.032
7.984
7.98
8.016
8.02
7.984
7.98
7.988
8.012
8.012
7.972
7.976
8
7.992
7.956
7.936
8.012
8.008
7.932
7.964
7.992
7.996
7.956
7.924
7.996
7.992
7.964
7.952
7.968
7.964
7.956
7.924
7.956
7.988
7.976
7.932
7.944
7.964
7.948
7.912
7.928
7.952
7.988
7.9
7.924
7.956
7.968
7.92
7.9
7.972
7.972
7.936
7.9
7.948
7.968
7.948
7.908
7.972
7.992
8.004
7.98
8.004
8.004
8.06
8.072
8.108
8.196
8.172
8.1
8.02
8.076
8.052
7.984
7.964
7.996
7.988
7.944
7.896
7.916
7.932
7.916
7.88
7.924
7.948
7.932
7.884
7.916
7.936
7.92
7.888
7.888
7.896
7.8
7.704
7.892
8.284
8.872
9.552
10.156
10.796
11
10.952
10.44
9.244
8.172
7.668
7.5
7.54
7.7
7.788
7.868
7.952
8.004
7.96
7.928
7.956
7.98
7.984
7.932
7.948
7.976
7.968
7.932
7.956
7.996
8.008
7.952
7.956
7.988
8.024
7.996
7.988
8.02
8.032
8.056
8.016
8.032
8.068
8.088
8.032
8.064
8.116
8.104
8.08
8.096
8.136
8.168
8.14
8.164
8.196
8.232
8.196
8.208
8.28
8.304
8.32
8.324
8.408
8.444
8.48
8.496
8.548
8.584
8.664
8.672
8.712
8.812
8.84
8.832
8.836
8.932
8.924
8.864
8.808
8.812
8.716
8.608
8.516
8.476
8.396
8.312
8.228
8.2
8.152
8.084
8.02
7.984
8.024
8.008
7.944
7.956
7.964
7.936
7.9
7.888
7.92
7.92
7.896
7.9
7.936
7.916
7.876
7.9
7.932
7.904
7.908
7.864
7.9
7.928
7.9
7.876
7.896
7.896
7.908
7.896
7.9
7.912
7.92
7.868
7.868
7.908
7.912
7.876
7.868
7.948
7.912
7.888
7.856
7.9
7.912
7.896
7.84
7.892
7.884
7.86
7.836
7.868
7.9
7.892
7.86
7.868
7.88
7.884
7.828
7.832
7.908
7.892
7.872
7.872
7.932
7.912
7.908
7.9
7.972
8.012
8.028
8.064
8.092
8.048
8.024
7.96
7.984
8
7.944
7.884
7.864
7.868
7.876
7.804
7.832
7.872
7.868
7.816
7.82
7.86
7.852
7.824
7.832
7.868
7.864
7.856
7.824
7.78
7.688
7.628
7.812
8.232
8.904
9.64
10.216
10.788
10.988
10.94
10.264
8.964
8.068
7.732
7.548
7.552
7.704
7.804
7.864
7.912
7.968
7.92
7.904
7.864
7.904
7.9
7.884
7.892
7.912
7.948
7.912
7.896
7.912
7.972
7.948
7.932
7.908
7.98
7.956
7.928
7.948
7.984
7.98
7.98
7.968
8.02
8.04
8.036
8.004
8.04
8.068
8.084
8.048
8.084
8.14
8.124
8.084
8.132
8.212
8.224
8.216
8.236
8.312
8.32
8.324
8.348
8.428
8.472
8.46
8.512
8.584
8.64
8.66
8.684
8.768
8.804
8.816
8.828
8.848
8.848
8.792
8.676
8.632
8.62
8.536
8.42
8.308
8.284
8.204
8.128
8.084
8.088
8.056
8.004
7.96
7.972
7.952
7.908
7.904
7.92
7.912
7.908
7.892
7.896
7.936
7.912
7.884
7.896
7.936
7.916
7.892
7.908
7.936
7.928
7.896
7.888
7.896
7.908
7.872
7.892
7.924
7.892
7.884
7.876
7.9
7.928
7.912
7.86
7.892
7.932
7.908
7.868
7.864
7.92
7.896
7.852
7.864
7.884
7.892
7.856
7.852
7.912
7.9
7.86
7.852
7.888
7.896
7.86
7.9
7.908
7.956
7.928
7.904
7.94
8.008
8.008
8.06
8.1
8.144
8.08
7.972
7.948
8.02
7.976
7.92
7.896
7.936
7.908
7.828
7.836
7.852
7.888
7.852
7.868
7.856
7.86
7.856
7.8
7.82
7.868
7.844
7.836
7.856
7.82
7.7
7.684
7.896
8.344
9.016
9.688
10.308
10.836
10.956
10.908
10.216
8.96
8.084
7.756
7.632
7.66
7.82
7.864
7.868
7.956
7.96
7.94
7.928
7.924
7.948
7.912
7.9
7.904
7.956
7.948
7.936
7.924
7.944
7.964
7.928
7.936
7.956
7.98
7.964
7.932
7.964
8.012
7.968
7.976
8
8.044
8.04
8.016
8.032
8.088
8.072
8.048
8.064
8.136
8.128
8.124
8.116
8.172
8.188
8.168
8.208
8.272
8.32
8.316
8.344
8.376
8.444
8.464
8.476
8.556
8.632
8.664
8.656
8.716
8.808
8.812
8.8
8.84
8.86
8.836
8.748
8.684
8.644
8.552
8.452
8.368
8.34
8.28
8.188
8.108
8.092
8.04
8.004
7.98
7.972
8
7.948
7.912
7.908
7.968
7.932
7.896
7.884
7.96
7.904
7.896
7.888
7.92
7.912
7.896
7.896
7.916
7.92
7.908
7.864
7.924
7.952
7.892
7.896
7.9
7.936
7.908
7.896
7.908
7.916
7.9
7.912
7.88
7.928
7.928
7.864
7.868
7.908
7.912
7.888
7.88
7.916
7.912
7.892
7.852
7.884
7.924
7.888
7.896
7.904
7.948
7.912
7.916
7.952
7.996
7.996
8.02
8.084
8.144
8.104
8.032
8.012
8.02
8.008
7.932
7.908
7.94
7.936
7.868
7.848
7.872
7.888
7.848
7.836
7.86
7.9
7.856
7.812
7.804
7.86
7.852
7.84
7.832
7.868
7.792
7.648
7.628
7.824
8.2
8.764
9.532
10.184
10.716
10.916
10.976
10.524
9.316
8.264
7.824
7.688
7.704
7.764
7.76
7.86
7.992
7.948
7.876
7.892
7.932
7.916
7.876
7.888
7.932
7.912
7.888
7.896
7.912
7.944
7.908
7.888
7.932
7.964
7.944
7.912
7.928
7.964
7.984
7.94
7.968
8.02
7.992
8.004
8.004
8.036
8.032
8.02
8.024
8.088
8.096
8.064
8.096
8.128
8.14
8.164
8.152
8.2
8.26
8.256
8.228
8.324
8.392
8.408
8.4
8.452
8.54
8.592
8.576
8.628
8.736
8.72
8.732
8.74
8.82
8.816
8.768
8.696
8.656
8.584
8.5
8.404
8.368
8.316
8.236
8.124
8.112
8.076
8.024
7.96
7.952
7.98
7.952
7.896
7.896
7.92
7.876
7.856
7.872
7.912
7.916
7.872
7.868
7.896
7.892
7.864
7.86
7.9
7.92
7.88
7.86
7.88
7.912
7.888
7.852
7.864
7.908
7.856
7.86
7.852
7.904
7.888
7.844
7.884
7.888
7.908
7.856
7.852
7.908
7.884
7.844
7.84
7.848
7.896
7.86
7.832
7.868
7.916
7.904
7.868
7.92
7.956
7.932
7.896
7.92
8
8.052
8.048
8.1
8.128
8.04
7.964
7.924
7.996
7.972
7.904
7.888
7.908
7.896
7.832
7.8
7.84
7.856
7.84
7.804
7.804
7.86
7.848
7.812
7.82
7.852
7.832
7.812
7.824
7.8
7.672
7.644
7.832
8.24
8.868
9.52
10.132
10.692
10.932
10.924
10.364
9.196
8.232
7.848
7.672
7.68
7.788
7.812
7.88
7.916
7.956
7.916
7.888
7.892
7.912
7.928
7.876
7.892
7.884
7.94
7.924
7.888
7.924
7.932
7.936
7.916
7.92
7.964
7.952
7.928
7.936
7.988
7.948
7.948
7.968
8.032
8.02
8.008
8.004
8.044
8.052
8.016
8.048
8.1
8.12
8.108
8.128
8.14
8.192
8.184
8.184
8.24
8.312
8.324
8.316
8.38
8.444
8.444
8.464
8.548
8.62
8.66
8.652
8.72
8.776
8.784
8.792
8.78
8.84
8.796
8.72
8.656
8.568
8.54
8.436
8.34
8.276
8.248
8.184
8.108
8.06
8.076
8.02
7.992
7.964
8.016
7.988
7.936
7.936
7.968
7.956
7.924
7.904
7.984
7.992
7.92
7.924
7.968
7.976
7.944
7.944
7.988
8.004
7.98
7.948
7.964
8.008
7.992
7.952
7.98
8.012
8
7.952
7.944
7.984
7.984
7.952
7.972
8
8.016
7.976
7.952
7.976
8.012
7.984
7.964
7.988
8.02
7.976
7.952
7.976
7.996
8.008
7.98
7.96
7.996
7.996
7.952
7.976
8.028
8.068
8.036
8.04
8.1
8.108
8.072
8.052
8.148
8.188
8.208
8.196
8.22
8.208
8.128
8.068
8.1
8.116
8.084
8.04
8.052
8.076
8.024
7.964
7.996
8
8.032
8.016
7.988
8.02
8.04
7.996
7.96
8.024
8.048
8
7.972
7.92
7.864
7.952
8.188
8.692
9.356
9.96
10.548
11.04
11.18
11.044
10.132
8.888
8.236
7.94
7.904
7.944
8.04
8.128
8.14
8.12
8.12
8.124
8.104
8.072
8.116
8.12
8.072
8.08
8.1
8.156
8.132
8.112
8.128
8.16
8.144
8.136
8.116
8.18
8.168
8.172
8.152
8.22
8.212
8.18
8.184
8.22
8.228
8.24
8.196
8.252
8.292
8.268
8.276
8.292
8.34
8.34
8.324
8.364
8.408
8.444
8.412
8.452
8.544
8.54
8.564
8.564
8.66
8.712
8.72
8.74
8.84
8.896
8.904
8.92
8.976
9.032
9.016
9.004
9.004
9.028
8.964
8.852
8.768
8.748
8.636
8.552
8.488
8.472
8.404
8.312
8.26
8.252
8.252
8.18
8.16
8.188
8.192
8.172
8.12
8.168
8.18
8.148
8.116
8.176
8.184
8.168
8.152
8.128
8.156
8.168
8.132
8.148
8.188
8.196
8.132
8.112
8.188
8.172
8.152
8.156
8.156
8.196
8.144
8.132
8.136
8.168
8.168
8.116
8.148
8.176
8.144
8.128
8.116
8.18
8.168
8.112
8.148
8.16
8.156
8.132
8.108
8.14
8.152
8.1
8.108
8.132
8.164
8.112
8.096
8.14
8.152
8.128
8.096
8.124
8.176
8.128
8.104
8.116
8.152
8.144
8.112
8.108
8.148
8.144
8.092
8.084
8.132
8.144
8.132
8.108
8.14
8.152
8.12
8.088
8.12
8.168
8.14
8.108
8.108
8.164
8.136
8.112
8.1
8.148
8.144
8.112
8.116
8.144
8.144
8.1
8.104
8.124
8.172
8.14
8.124
8.168
8.204
8.156
8.176
8.208
8.236
8.252
8.284
8.308
8.356
8.32
8.236
8.216
8.236
8.228
8.164
8.164
8.184
8.18
8.108
8.108
8.124
8.156
8.104
8.088
8.12
8.144
8.116
8.092
8.108
8.156
8.116
8.072
8.088
8.028
7.964
8.06
8.36
8.884
9.472
10.072
10.66
11.148
11.232
10.984
10.036
8.896
8.26
7.948
7.952
8.068
8.148
8.184
8.22
8.216
8.224
8.188
8.16
8.16
8.188
8.176
8.152
8.152
8.204
8.228
8.18
8.168
8.22
8.224
8.192
8.2
8.228
8.26
8.208
8.216
8.248
8.272
8.232
8.22
8.252
8.324
8.268
8.28
8.284
8.34
8.336
8.308
8.332
8.4
8.404
8.36
8.38
8.436
8.452
8.444
8.476
8.532
8.552
8.544
8.58
8.652
8.684
8.688
8.708
8.8
8.876
8.892
8.892
8.968
9.028
9.068
9.088
9.104
9.152
9.124
9.068
9.004
8.988
8.908
8.776
8.712
8.684
8.616
8.484
8.428
8.416
8.384
8.3
8.272
8.264
8.236
8.208
8.156
8.184
8.228
8.208
8.184
8.184
8.196
8.196
8.152
8.14
8.184
8.216
8.16
8.16
8.204
8.196
8.156
8.14
8.188
8.204
8.156
8.132
8.184
8.184
8.184
8.152
8.164
8.204
8.184
8.152
8.172
8.192
8.148
8.132
8.128
8.172
8.188
8.144
8.14
8.16
8.168
8.152
8.12
8.18
8.18
8.164
8.136
8.136
8.18
8.148
8.116
8.14
8.184
8.16
8.112
8.116
8.176
8.164
8.108
8.112
8.152
8.164
8.104
8.116
8.144
8.152
8.1
8.112
8.144
8.18
8.144
8.12
8.116
8.16
8.148
8.108
8.132
8.16
8.152
8.116
8.12
8.168
8.16
8.1
8.128
8.152
8.164
8.116
8.096
8.144
8.144
8.1
8.108
8.148
8.164
8.124
8.076
8.128
8.144
8.128
8.1
8.128
8.18
8.144
8.108
8.124
8.136
8.132
8.092
8.112
8.156
8.156
8.116
8.1
8.128
8.16
8.092
8.116
8.152
8.168
8.132
8.096
8.136
8.128
8.124
8.108
8.132
8.156
8.144
8.116
8.12
8.136
8.132
8.1
8.112
8.164
8.148
8.12
8.144
8.192
8.236
8.192
8.2
8.284
8.356
8.368
8.32
8.296
8.268
8.252
8.208
8.208
8.224
8.196
8.152
8.132
8.172
8.16
8.096
8.116
8.144
8.16
8.104
8.092
8.132
8.148
8.132
8.1
8.132
8.14
8.008
7.96
8.136
8.468
8.956
9.488
10.108
10.736
11.088
11.136
10.94
9.992
8.776
8.064
7.792
7.896
8.004
8.068
8.148
8.264
8.284
8.2
8.192
8.212
8.22
8.164
8.16
8.192
8.224
8.192
8.168
8.212
8.244
8.22
8.204
8.192
8.24
8.276
8.208
8.24
8.264
8.264
8.24
8.252
8.272
8.32
8.284
8.284
8.312
8.34
8.32
8.308
8.332
8.4
8.4
8.348
8.408
8.444
8.44
8.428
8.468
8.544
8.56
8.536
8.556
8.636
8.664
8.66
8.712
8.796
8.84
8.864
8.868
8.956
9.024
9.036
9.052
9.096
9.176
9.168
9.104
9.116
9.132
9.056
8.972
8.9
8.852
8.784
8.628
8.592
8.548
8.5
8.388
8.352
8.352
8.336
8.26
8.228
8.248
8.236
8.228
8.18
8.22
8.228
8.2
8.156
8.192
8.236
8.18
8.168
8.196
8.216
8.212
8.152
8.184
8.208
8.212
8.192
8.184
8.212
8.24
8.168
8.164
8.176
8.184
8.192
8.176
8.2
8.232
8.192
8.156
8.16
8.192
8.204
8.144
8.16
8.204
8.184
8.136
8.136
8.156
8.192
8.124
8.144
8.152
8.188
8.14
8.108
8.144
8.156
8.14
8.104
8.108
8.14
8.108
8.08
8.108
8.132
8.116
8.072
8.064
8.104
8.128
8.076
8.08
8.124
8.124
8.08
8.088
8.124
8.128
8.06
8.068
8.1
8.108
8.092
8.064
8.088
8.104
8.104
8.036
8.084
8.116
8.12
8.068
8.088
8.096
8.108
8.048
8.044
8.112
8.108
8.06
8.072
8.084
8.088
8.048
8.04
8.068
8.092
8.076
8.06
8.076
8.1
8.076
8.036
8.06
8.096
8.08
8.04
8.06
8.092
8.096
8.072
8.088
8.116
8.172
8.112
8.116
8.224
8.272
8.284
8.26
8.248
8.192
8.172
8.136
8.12
8.132
8.104
8.056
8.048
8.056
8.064
8.024
8.016
8.056
8.064
8.004
8.02
8.052
8.088
8.02
8
8.036
8.048
7.932
7.84
7.972
8.312
8.772
9.4
10.036
10.644
11.056
11.064
10.884
9.948
8.72
7.944
7.704
7.708
7.816
7.876
8.004
8.132
8.148
8.064
8.076
8.068
8.104
8.064
8.064
8.084
8.104
8.06
8.044
8.076
8.124
8.116
8.064
8.108
8.14
8.124
8.068
8.096
8.144
8.168
8.104
8.116
8.16
8.16
8.16
8.148
8.172
8.196
8.184
8.188
8.228
8.268
8.236
8.212
8.252
8.28
8.3
8.284
8.336
8.384
8.424
8.36
8.416
8.484
8.528
8.524
8.568
8.656
8.7
8.7
8.7
8.788
8.848
8.876
8.9
8.972
8.996
9.008
8.976
8.972
8.98
8.904
8.776
8.74
8.68
8.568
8.46
8.38
8.364
8.308
8.204
8.168
8.148
8.132
8.076
8.048
8.06
8.056
8.04
7.996
7.996
8.04
8.016
7.976
7.996
8.028
8.02
7.984
8.012
8.032
8.004
7.976
7.992
8.024
8.044
7.992
7.98
8.02
8.02
7.972
7.996
8.012
8.028
8
7.988
8.012
8.04
8
7.98
8.008
8.028
8.02
7.984
7.988
8.028
8.012
7.968
7.98
8.02
8.012
7.964
7.936
8.004
8.012
7.96
7.964
8.008
8
7.968
7.948
7.984
8
7.972
7.948
7.98
8.004
7.98
7.952
7.952
7.996
7.98
7.932
7.948
8.012
8.036
7.956
7.992
8.032
8.028
8.016
8.032
8.088
8.116
8.124
8.144
8.236
8.24
8.172
8.104
8.096
8.144
8.108
8.012
8.024
8.036
8
7.928
7.96
8.012
7.992
7.944
7.944
7.984
7.984
7.932
7.952
8.004
8.008
7.956
7.928
7.948
7.876
7.8
7.864
8.2
8.772
9.472
10.024
10.672
11.06
11.092
10.764
9.708
8.52
7.928
7.684
7.66
7.812
7.932
7.96
8.056
8.084
8.076
8.044
8.02
8.028
8.068
8.064
8.016
8.036
8.104
8.088
8.036
8.052
8.12
8.104
8.072
8.108
8.132
8.14
8.072
8.108
8.14
8.168
8.14
8.128
8.176
8.212
8.16
8.156
8.204
8.232
8.228
8.204
8.248
8.292
8.264
8.244
8.296
8.344
8.376
8.36
8.388
8.464
8.472
8.468
8.512
8.576
8.64
8.652
8.684
8.764
8.804
8.82
8.84
8.928
8.992
9.004
8.996
9.04
9.072
9.036
8.948
8.892
8.868
8.772
8.636
8.572
8.532
8.468
8.344
8.288
8.276
8.264
8.188
8.148
8.136
8.136
8.104
8.056
8.072
8.092
8.096
8.048
8.076
8.108
8.08
8.032
8.044
8.092
8.1
8.048
8.068
8.092
8.104
8.048
8.056
8.112
8.092
8.064
8.06
8.088
8.1
8.068
8.04
8.076
8.116
8.108
8.056
8.096
8.096
8.072
8.052
8.044
8.104
8.076
8.032
8.052
8.092
8.072
8.04
8.06
8.092
8.092
8.052
8.056
8.076
8.1
8.044
8.028
8.08
8.1
8.068
8.02
8.056
8.084
8.06
8.036
8.088
8.132
8.128
8.08
8.112
8.148
8.152
8.14
8.192
8.272
8.332
8.308
8.248
8.216
8.208
8.176
8.124
8.152
8.156
8.128
8.052
8.048
8.092
8.068
8.036
8.02
8.096
8.088
8.032
8.016
8.08
8.064
8.028
8.052
8.08
8.068
7.948
7.864
7.956
8.276
8.676
9.292
9.96
10.584
11.068
11.092
11.04
10.208
8.896
7.98
7.704
7.7
7.836
7.876
8.016
8.148
8.184
8.128
8.108
8.16
8.14
8.108
8.08
8.14
8.164
8.132
8.112
8.144
8.176
8.148
8.096
8.164
8.188
8.184
8.144
8.172
8.232
8.196
8.164
8.192
8.236
8.244
8.2
8.204
8.264
8.288
8.256
8.248
8.296
8.328
8.32
8.308
8.352
8.404
8.396
8.372
8.424
8.492
8.508
8.488
8.524
8.604
8.624
8.636
8.664
8.764
8.832
8.848
8.904
8.96
9.004
9.02
9.052
9.112
9.144
9.112
9.064
9.036
9.016
8.912
8.776
8.724
8.684
8.572
8.464
8.42
8.404
8.34
8.248
8.232
8.236
8.22
8.156
8.14
8.144
8.168
8.104
8.096
8.148
8.164
8.124
8.064
8.112
8.152
8.128
8.096
8.128
8.132
8.152
8.096
8.128
8.164
8.152
8.104
8.092
8.14
8.156
8.124
8.088
8.128
8.136
8.116
8.092
8.14
8.156
8.116
8.084
8.144
8.16
8.116
8.076
8.108
8.16
8.148
8.052
8.096
8.104
8.108
8.064
8.116
8.144
8.144
8.092
8.072
8.12
8.12
8.088
8.068
8.1
8.136
8.096
8.056
8.104
8.12
8.092
8.068
8.1
8.132
8.128
8.08
8.1
8.16
8.156
8.136
8.18
8.192
8.24
8.224
8.284
8.332
8.34
8.284
8.216
8.224
8.24
8.164
8.112
8.152
8.176
8.116
8.056
8.076
8.14
8.1
8.044
8.068
8.132
8.092
8.08
8.1
8.116
8.1
8.068
8.068
8.088
8.008
7.912
7.996
8.312
8.772
9.4
10.008
10.668
11.124
11.188
10.996
10.096
8.82
7.976
7.672
7.668
7.836
7.98
8.036
8.16
8.22
8.184
8.148
8.128
8.168
8.184
8.136
8.14
8.176
8.196
8.148
8.136
8.184
8.196
8.192
8.16
8.184
8.228
8.216
8.172
8.196
8.24
8.236
8.22
8.212
8.248
8.256
8.232
8.232
8.284
8.304
8.296
8.28
8.312
8.356
8.316
8.3
8.396
8.42
8.436
8.42
8.476
8.512
8.548
8.516
8.572
8.656
8.692
8.712
8.744
8.816
8.864
8.864
8.924
9.008
9.048
9.048
9.056
9.116
9.112
9.052
9.016
8.968
8.932
8.828
8.648
8.628
8.604
8.488
8.392
8.372
8.348
8.3
8.22
8.192
8.216
8.176
8.12
8.1
8.164
8.14
8.12
8.068
8.14
8.132
8.128
8.084
8.128
8.116
8.132
8.096
8.108
8.112
8.124
8.06
8.104
8.152
8.136
8.092
8.116
8.14
8.14
8.08
8.072
8.144
8.16
8.104
8.076
8.112
8.116
8.072
8.052
8.1
8.14
8.092
8.012
8.076
8.1
8.104
8.056
8.064
8.108
8.128
8.048
8.064
8.096
8.06
8.04
8.032
8.096
8.108
8.044
8.024
8.044
8.084
8.068
8.02
8.088
8.092
8.06
8.012
8.024
8.068
8.044
8.016
8.068
8.1
8.044
8.048
8
8.06
8.076
8.072
8.092
8.092
8.056
8.048
8.02
8.076
8.108
8.04
8.028
8.048
8.092
8.056
8.04
8.084
8.14
8.18
8.116
8.08
8.136
8.192
8.168
8.228
8.3
8.32
8.208
8.156
8.18
8.148
8.12
8.048
8.108
8.1
8.052
8.008
8.032
8.084
8.068
8.004
8.032
8.044
8.048
8.028
8.032
8.056
8.052
8.008
8.036
8
7.876
7.772
8.004
8.452
9.124
9.832
10.436
11.012
11.156
11.068
10.288
9.048
8.156
7.812
7.64
7.712
7.908
7.964
8.048
8.108
8.136
8.1
8.052
8.068
8.088
8.08
8.06
8.064
8.096
8.08
8.064
8.056
8.1
8.12
8.092
8.104
8.128
8.144
8.128
8.096
8.152
8.184
8.176
8.132
8.128
8.18
8.168
8.124
8.152
8.228
8.224
8.196
8.184
8.248
8.268
8.264
8.228
8.332
8.344
8.308
8.324
8.372
8.436
8.436
8.436
8.496
8.572
8.596
8.604
8.636
8.724
8.748
8.768
8.776
8.888
8.936
8.908
8.904
8.992
8.956
8.94
8.884
8.888
8.816
8.712
8.596
8.552
8.512
8.428
8.276
8.288
8.288
8.232
8.116
8.124
8.144
8.104
8.036
8.052
8.088
8.104
8.052
8.06
8.088
8.06
8.012
8.016
8.076
8.08
8.016
8.008
8.064
8.088
8.04
7.992
8.028
8.072
8.076
7.988
8.008
8.056
8.044
7.996
8.032
8.064
8.044
8.008
7.988
8.032
8.04
8.016
7.992
8.036
8.044
8.02
7.98
8.008
8.044
8.02
7.972
8.016
8.024
8.004
7.976
8
8.032
8.02
7.976
7.992
8.02
8.012
7.972
7.972
8
8.008
7.996
7.948
8.016
8.036
8.012
7.976
8.044
8.076
8.068
8.06
8.084
8.152
8.156
8.168
8.204
8.24
8.168
8.088
8.076
8.108
8.064
8.024
7.98
8.032
8.004
7.98
7.948
7.988
8.016
7.984
7.932
7.988
8.012
7.972
7.94
7.972
8
7.964
7.92
7.892
7.856
7.812
7.964
8.312
9.008
9.712
10.28
10.828
11.056
11.084
10.488
9.216
8.292
7.916
7.748
7.732
7.876
7.976
8.036
8.044
8.088
8.096
8.048
7.988
8.028
8.084
8.044
8.02
8.024
8.084
8.08
8.012
8.04
8.104
8.1
8.056
8.056
8.096
8.116
8.096
8.06
8.12
8.152
8.124
8.084
8.14
8.172
8.148
8.12
8.176
8.224
8.22
8.172
8.2
8.256
8.256
8.228
8.252
8.332
8.348
8.344
8.348
8.4
8.452
8.448
8.452
8.544
8.628
8.628
8.628
8.696
8.772
8.792
8.804
8.856
8.92
8.952
8.94
8.924
8.98
8.94
8.828
8.768
8.728
8.636
8.528
8.436
8.408
8.352
8.28
8.224
8.212
8.184
8.136
8.088
8.088
8.124
8.076
8.044
8.024
8.092
8.088
8.008
8.004
8.08
8.072
8.012
8.028
8.084
8.08
8.036
8
8.048
8.072
8.04
8.012
8.056
8.084
8.024
7.992
8.004
8.084
8.068
8.012
8.028
8.068
8.048
7.996
8.016
8.06
8.064
8.032
7.988
8.06
8.064
8.02
7.968
8.044
8.068
8.028
7.992
8.012
8.036
8.02
7.984
7.988
8.064
8.036
7.98
7.98
8.032
8.024
7.96
7.984
8.06
8.052
8.024
8
8.092
8.112
8.068
8.024
8.136
8.188
8.216
8.2
8.236
8.188
8.136
8.056
8.072
8.108
8.096
8.024
8.032
8.044
8.008
7.96
7.952
8.02
8.032
7.988
7.976
8.004
8.012
7.956
7.924
8
8.02
7.968
7.92
7.86
7.86
8
8.3
8.888
9.576
10.2
10.728
11.012
11.144
10.752
9.56
8.444
7.968
7.804
7.788
7.884
7.98
8.072
8.084
8.02
8.068
8.088
8.04
8.008
8.032
8.044
8.036
7.992
8.02
8.064
8.064
8.012
8
8.104
8.072
8.02
8.06
8.132
8.116
8.064
8.052
8.104
8.132
8.08
8.1
8.16
8.176
8.148
8.124
8.16
8.188
8.196
8.184
8.204
8.272
8.264
8.232
8.248
8.34
8.328
8.328
8.364
8.452
8.468
8.448
8.484
8.572
8.596
8.636
8.644
8.764
8.796
8.8
8.8
8.888
8.94
8.932
8.916
8.912
8.92
8.808
8.708
8.64
8.612
8.496
8.4
8.348
8.328
8.26
8.18
8.112
8.128
8.124
8.048
8.012
8.048
8.056
8.008
7.96
7.988
8.056
8.012
7.968
7.996
8.044
8.016
7.96
7.96
8.036
8.024
7.992
7.988
8.044
8.032
7.98
7.968
8.016
8.028
7.996
7.948
8.012
8.028
8.012
7.972
7.98
8.04
8.012
7.968
7.988
8.02
8
7.936
7.968
8.04
8.004
7.968
7.972
8.028
8.02
7.972
7.948
8.008
8.008
7.98
7.952
7.996
8.012
7.952
7.928
7.968
8.008
7.992
7.944
7.952
7.984
7.968
7.936
7.944
8.016
8.024
7.96
7.976
8.036
8.044
8.02
8.008
8.088
8.12
8.148
8.132
8.192
8.204
8.12
8.032
8.068
8.092
8.044
7.992
8.008
8.028
7.996
7.92
7.932
8.004
7.976
7.952
7.936
7.996
7.96
7.936
7.94
7.972
7.988
7.96
7.908
7.924
7.824
7.808
7.976
8.36
8.972
9.584
10.16
10.768
11.044
11.08
10.56
9.376
8.352
7.892
7.7
7.74
7.912
7.976
8.016
8.048
8.068
8.084
8.008
7.964
8.04
8.048
8.024
8
8.012
8.072
8.036
8.012
8.036
8.076
8.08
8.032
8.048
8.108
8.1
8.036
8.052
8.128
8.104
8.08
8.084
8.148
8.148
8.128
8.096
8.16
8.2
8.172
8.18
8.192
8.228
8.22
8.184
8.248
8.308
8.34
8.304
8.332
8.4
8.432
8.444
8.448
8.544
8.576
8.6
8.628
8.704
8.764
8.768
8.784
8.852
8.928
8.94
8.92
8.952
8.976
8.916
8.812
8.744
8.732
8.632
8.516
8.44
8.42
8.332
8.224
8.196
8.184
8.168
8.104
8.076
8.096
8.068
8.02
7.976
8.032
8.052
8.028
8.004
8.016
8.052
8.012
7.972
7.996
8.064
8.036
7.996
8
8.044
8.052
7.996
8
8.052
8.052
8.008
7.992
8.044
8.052
8.008
7.964
8.024
8.06
8.008
7.984
7.992
8.036
8.016
7.976
7.968
8.036
8.02
7.964
7.956
8.024
8
7.964
7.948
8.02
8.028
7.968
7.96
7.996
7.988
7.968
7.952
7.98
8.004
7.976
7.92
7.952
7.996
7.988
7.932
7.948
8
7.972
7.936
7.94
8.008
7.992
7.952
7.964
8.024
8.028
8.004
8
8.064
8.076
8.028
8.052
8.124
8.2
8.188
8.164
8.164
8.128
8.092
8.064
8.044
8.088
8.048
8
7.968
8.004
7.956
7.932
7.936
7.996
7.984
7.916
7.92
7.976
7.98
7.952
7.936
7.952
8.008
7.936
7.852
7.788
7.896
8.164
8.56
9.208
9.892
10.448
10.888
10.98
10.932
10.064
8.76
7.884
7.676
7.608
7.708
7.784
7.968
8.06
8.036
8.008
8.008
8.068
8.008
7.976
7.996
8.056
8.036
8.004
8.036
8.064
8.08
8
8.032
8.1
8.092
8.06
8.052
8.128
8.104
8.084
8.068
8.124
8.14
8.116
8.116
8.16
8.192
8.144
8.112
8.156
8.232
8.22
8.2
8.204
8.268
8.26
8.236
8.268
8.36
8.348
8.352
8.372
8.436
8.476
8.496
8.52
8.596
8.664
8.68
8.692
8.764
8.844
8.848
8.848
8.912
8.98
8.988
8.94
8.924
8.944
8.856
8.72
8.656
8.644
8.544
8.416
8.348
8.336
8.256
8.168
8.128
8.136
8.112
8.076
8.024
8.048
8.064
8.032
7.968
8
8.064
8.024
7.98
7.968
8.048
8.02
7.984
7.968
8.02
8.032
8
7.976
8.036
8.028
7.984
7.968
8.024
8.04
8
7.956
7.98
8.02
7.996
7.96
7.968
8.044
8
7.936
7.952
8.024
7.984
7.948
7.944
8.012
7.98
7.928
7.944
7.988
7.964
7.932
7.9
7.96
7.972
7.944
7.892
7.924
7.984
7.948
7.92
7.936
7.996
7.952
7.912
7.924
7.948
7.94
7.908
7.916
7.98
7.976
7.912
7.912
7.944
7.952
7.916
7.916
7.956
7.988
7.94
7.916
7.936
8.008
8.008
7.984
8.012
8.108
8.128
8.136
8.148
8.204
8.116
8.028
8.048
8.08
8.032
7.972
7.94
7.996
7.964
7.92
7.904
7.936
7.956
7.912
7.892
7.916
7.956
7.928
7.872
7.9
7.98
7.924
7.9
7.868
7.796
7.772
7.932
8.312
9.016
9.696
10.268
10.82
11.004
10.996
10.348
9.048
8.104
7.744
7.556
7.58
7.76
7.9
7.984
8.04
8.036
8.032
8.028
7.956
7.964
8.056
8.02
8.012
7.996
8.044
8.044
8.004
7.996
8.064
8.076
8.024
8.024
8.064
8.116
8.068
8.04
8.076
8.144
8.112
8.084
8.112
8.148
8.128
8.12
8.12
8.18
8.172
8.152
8.168
8.244
8.24
8.192
8.22
8.276
8.34
8.32
8.312
8.38
8.424
8.4
8.424
8.488
8.588
8.62
8.596
8.66
8.748
8.752
8.772
8.808
8.908
8.944
8.924
8.912
8.948
8.928
8.808
8.72
8.684
8.636
8.5
8.424
8.356
8.348
8.232
8.164
8.136
8.16
8.104
8.004
8.032
8.056
8.036
7.976
7.984
8.04
8.032
7.964
7.944
8.008
8.032
7.96
7.956
8.024
8.024
7.992
7.968
8.004
8.048
8.024
7.98
8.012
8.036
8.032
7.968
8.008
8.06
8.02
7.968
8.016
8.064
8.028
7.988
7.996
8.036
8.048
7.992
8
8.024
8.028
7.996
7.964
8
8.008
8.008
7.976
8
8.036
8.004
7.94
7.976
8.036
8
7.972
7.968
8.02
8
7.948
7.94
8.016
8
7.964
7.94
7.996
8.016
7.956
7.948
7.98
8.044
8.032
7.984
8.032
8.088
8.06
8.048
8.076
8.172
8.204
8.208
8.172
8.212
8.14
8.052
8.076
8.064
8.076
8.032
8.012
8.024
8.04
7.98
7.94
7.98
8.012
7.988
7.944
7.98
8.016
8
7.936
7.988
8.036
8
7.916
7.848
7.892
8.072
8.376
8.928
9.58
10.224
10.776
10.98
11.072
10.688
9.396
8.244
7.772
7.636
7.724
7.832
7.924
8.088
8.112
8.036
8.036
8.116
8.048
8.004
8.012
8.084
8.08
8.032
8.032
8.088
8.076
8.06
8.064
8.072
8.104
8.088
8.064
8.104
8.156
8.1
8.092
8.108
8.172
8.144
8.116
8.144
8.216
8.204
8.14
8.168
8.22
8.204
8.208
8.22
8.288
8.304
8.288
8.284
8.316
8.4
8.356
8.388
8.44
8.512
8.512
8.512
8.58
8.652
8.676
8.696
8.764
8.868
8.876
8.872
8.9
8.992
8.996
8.96
8.948
8.952
8.916
8.788
8.68
8.636
8.6
8.484
8.404
8.352
8.336
8.236
8.156
8.128
8.136
8.116
8.04
8.052
8.1
8.08
8.024
8.008
8.076
8.052
8.032
8.008
8.048
8.072
8.024
8.024
8.032
8.068
8.032
8.012
8.036
8.088
8.024
8
8.024
8.096
8.032
8.012
8.032
8.08
8.052
8.004
8.012
8.068
8.048
8.02
8.012
8.056
8.064
8.004
7.98
8.036
8.048
8.032
8
8.048
8.072
8.024
7.992
8.008
8.064
8.04
8.004
8.016
8.056
8.032
7.98
8.004
8.064
8.06
8.004
8.012
8.04
8.072
8.012
8.004
8.04
8.08
8.048
8.024
8.06
8.1
8.04
8.032
8.056
8.136
8.116
8.104
8.112
8.184
8.196
8.204
8.236
8.296
8.276
8.144
8.156
8.172
8.168
8.068
8.06
8.088
8.112
8.044
8.004
8.02
8.084
8.028
8
8.012
8.072
8.052
8.004
8.028
8.076
8.056
8.008
7.988
7.984
7.916
7.972
8.272
8.784
9.448
10.032
10.636
11.056
11.168
10.888
9.824
8.584
7.904
7.604
7.596
7.784
7.96
8.04
8.088
8.116
8.18
8.128
8.076
8.092
8.152
8.14
8.1
8.08
8.144
8.132
8.096
8.092
8.148
8.18
8.116
8.112
8.14
8.18
8.156
8.108
8.148
8.24
8.192
8.168
8.196
8.252
8.208
8.18
8.208
8.264
8.284
8.24
8.272
8.296
8.34
8.304
8.32
8.368
8.416
8.4
8.38
8.444
8.532
8.52
8.524
8.588
8.66
8.676
8.692
8.76
8.84
8.884
8.88
8.916
9.016
9.028
9.012
9.016
9.036
9.036
8.952
8.872
8.812
8.764
8.636
8.532
8.496
8.468
8.364
8.276
8.276
8.252
8.192
8.136
8.124
8.152
8.132
8.068
8.088
8.124
8.128
8.072
8.052
8.1
8.116
8.064
8.06
8.088
8.116
8.064
8.044
8.072
8.104
8.068
8.056
8.076
8.1
8.084
8.02
8.056
8.096
8.08
8.056
8.064
8.096
8.096
8.04
8.016
8.068
8.088
8.06
8.028
8.04
8.092
8.032
8.012
8.032
8.08
8.048
8.028
8.012
8.068
8.032
8.008
7.996
8.068
8.032
8.004
8.004
8.04
8.048
7.988
7.98
8.028
8.06
8.012
7.98
8
8.032
8.012
7.968
8
8.056
8.024
7.98
7.992
8.044
8.024
7.98
7.996
8.056
8.048
7.968
7.976
8.02
8.044
7.996
7.964
8.024
8.056
7.992
7.984
8.032
8.024
7.98
7.96
8.008
8.06
8.02
7.972
7.996
8.044
8.012
7.952
7.992
8.044
8.04
7.972
7.956
8.012
8.044
7.984
7.992
8.02
8.044
8.004
7.976
8.02
8.06
8.012
7.984
8.056
8.108
8.08
8.068
8.132
8.216
8.252
8.212
8.188
8.172
8.136
8.104
8.044
8.076
8.092
8.012
7.996
8.02
8.032
7.976
7.96
7.992
8.024
7.992
7.964
8.008
8.036
7.948
7.932
7.964
8.012
7.952
7.844
7.808
8.08
8.396
8.924
9.596
10.264
10.86
10.988
11.028
10.564
9.332
8.176
7.656
7.536
7.648
7.76
7.86
8.004
8.128
8.056
8.024
8.032
8.076
8.052
8.036
8.044
8.08
8.088
8.036
8.02
8.088
8.104
8.064
8.056
8.096
8.108
8.088
8.052
8.12
8.16
8.128
8.108
8.16
8.18
8.152
8.112
8.136
8.172
8.212
8.16
8.172
8.224
8.224
8.196
8.22
8.268
8.304
8.284
8.3
8.368
8.396
8.392
8.396
8.444
8.532
8.496
8.536
8.576
8.684
8.684
8.696
8.756
8.844
8.884
8.884
8.908
8.972
8.996
8.952
8.952
8.952
8.92
8.804
8.736
8.668
8.628
8.492
8.392
8.368
8.352
8.256
8.192
8.156
8.188
8.124
8.052
8.056
8.084
8.084
8.008
8.004
8.028
8.052
8.004
7.988
8.052
8.06
8.004
7.988
8.024
8.044
8.012
7.992
8.032
8.08
8
7.988
8.008
8.064
8.024
7.992
8.02
8.04
8.028
7.996
7.988
8.028
8.024
7.96
7.972
8.016
8.04
7.96
7.952
7.996
8.032
7.992
7.976
8.004
8.04
7.976
7.952
7.96
7.992
7.964
7.944
7.976
8.004
7.996
7.956
7.948
7.976
8.008
7.94
7.968
7.992
7.984
7.952
7.936
7.972
8
7.94
7.936
7.976
7.996
7.968
7.944
7.96
8.008
7.956
7.928
7.968
8.008
7.984
7.92
7.944
7.984
8
7.932
7.92
7.976
8.008
7.916
7.936
7.948
7.984
7.948
7.936
7.964
8.008
7.96
7.928
7.944
8.016
8.016
7.976
8.032
8.072
8.072
8.064
8.136
8.196
8.232
8.132
8.108
8.104
8.108
8.016
8.008
8.036
8.044
7.96
7.944
7.968
8.008
7.952
7.94
7.952
7.992
7.968
7.936
7.936
7.992
7.976
7.936
7.916
7.92
7.828
7.772
7.988
8.4
9.056
9.664
10.28
10.884
11.088
11.008
10.368
9.108
8.12
7.688
7.504
7.608
7.78
7.876
7.964
8.02
8.048
8.028
7.984
7.996
8.044
8.044
8.008
8.016
8.052
8.056
8.008
8.012
8.068
8.084
8.052
8.028
8.064
8.104
8.072
8.044
8.092
8.128
8.112
8.064
8.112
8.144
8.168
8.112
8.112
8.18
8.208
8.172
8.164
8.236
8.248
8.208
8.204
8.252
8.32
8.304
8.296
8.36
8.412
8.388
8.408
8.46
8.556
8.576
8.54
8.616
8.696
8.74
8.732
8.784
8.884
8.932
8.896
8.924
8.98
9.008
8.928
8.86
8.848
8.768
8.688
8.552
8.512
8.48
8.372
8.268
8.228
8.228
8.172
8.072
8.068
8.084
8.052
8
8.016
8.012
8.032
7.96
7.972
8.004
8.032
7.96
7.972
8.004
8.028
7.992
7.972
7.984
8.032
7.988
7.968
8
8.02
8.008
7.944
7.988
8.016
8.004
7.968
7.968
8.02
8.008
7.96
7.94
8.004
8.016
7.976
7.968
7.988
8
7.972
7.952
7.988
8.008
7.984
7.944
7.976
8.004
7.98
7.936
7.956
7.996
7.96
7.956
7.948
7.98
7.98
7.912
7.94
7.972
7.984
7.94
7.944
7.972
7.996
7.956
7.924
7.956
7.984
7.972
7.932
7.948
7.98
7.972
7.924
7.936
7.992
7.992
7.908
7.944
7.98
7.984
7.92
7.916
7.98
7.976
7.96
7.932
7.944
7.996
7.952
7.916
7.972
8.016
7.992
7.94
7.984
8.028
8.032
8
8.048
8.12
8.16
8.148
8.172
8.204
8.124
8.052
8.044
8.056
8.048
7.992
7.968
7.988
7.972
7.936
7.908
7.948
7.968
7.96
7.904
7.932
7.956
7.94
7.892
7.924
7.96
7.952
7.876
7.784
7.816
7.996
8.272
8.86
9.556
10.184
10.728
10.948
10.996
10.588
9.372
8.192
7.704
7.552
7.584
7.688
7.836
7.988
8.068
7.992
7.984
8.036
8.032
7.992
7.96
8.036
8.036
8.004
7.98
8.04
8.06
8.012
7.98
8.04
8.056
8.028
8.02
8.036
8.08
8.064
8.036
8.056
8.088
8.096
8.084
8.096
8.14
8.132
8.088
8.1
8.16
8.204
8.148
8.156
8.236
8.264
8.224
8.232
8.264
8.304
8.312
8.32
8.376
8.448
8.46
8.436
8.536
8.584
8.628
8.624
8.68
8.768
8.816
8.768
8.852
8.916
8.968
8.936
8.936
8.968
8.92
8.828
8.732
8.672
8.632
8.504
8.408
8.364
8.324
8.236
8.128
8.116
8.12
8.092
8.012
7.992
8.004
8.016
7.936
7.92
7.98
8
7.936
7.908
7.972
7.976
7.94
7.944
7.964
7.984
7.972
7.936
7.944
7.976
7.948
7.908
7.936
7.984
7.976
7.924
7.94
7.956
7.976
7.92
7.928
7.96
7.996
7.94
7.936
7.956
7.984
7.916
7.916
7.944
7.972
7.92
7.9
7.924
7.948
7.924
7.884
7.888
7.94
7.948
7.884
7.9
7.944
7.944
7.864
7.872
7.936
7.956
7.908
7.888
7.924
7.948
7.892
7.876
7.916
7.96
7.916
7.88
7.908
7.916
7.896
7.864
7.872
7.948
7.9
7.86
7.852
7.916
7.924
7.86
7.888
7.932
7.944
7.88
7.88
7.9
7.904
7.896
7.884
7.928
8.004
7.972
7.936
7.992
8.08
8.124
8.108
8.132
8.108
8.048
7.976
7.972
7.992
7.972
7.908
7.88
7.912
7.924
7.852
7.864
7.892
7.924
7.88
7.852
7.904
7.912
7.872
7.848
7.876
7.9
7.872
7.744
7.68
7.784
8.064
8.484
9.236
9.956
10.56
10.928
10.932
10.748
9.752
8.46
7.748
7.6
7.528
7.584
7.716
7.848
7.98
7.964
7.94
7.92
7.964
7.948
7.912
7.94
7.98
7.98
7.936
7.948
7.984
8.012
7.964
7.972
7.988
7.996
7.948
7.964
8.004
8.032
8.004
7.98
8.028
8.052
8.048
8.028
8.036
8.092
8.08
8.052
8.092
8.116
8.128
8.084
8.124
8.152
8.212
8.184
8.184
8.236
8.268
8.248
8.284
8.324
8.392
8.372
8.392
8.484
8.528
8.556
8.58
8.66
8.748
8.772
8.744
8.82
8.868
8.892
8.832
8.844
8.848
8.792
8.668
8.584
8.548
8.496
8.376
8.276
8.268
8.204
8.124
8.052
8.036
8.024
8.004
7.928
7.952
7.956
7.928
7.896
7.908
7.932
7.936
7.864
7.888
7.948
7.948
7.884
7.876
7.912
7.912
7.888
7.888
7.924
7.932
7.904
7.88
7.892
7.904
7.912
7.892
7.896
7.932
7.912
7.864
7.892
7.936
7.936
7.856
7.856
7.928
7.912
7.868
7.844
7.912
7.904
7.868
7.856
7.884
7.9
7.86
7.852
7.876
7.908
7.904
7.86
7.876
7.912
7.904
7.832
7.864
7.876
7.884
7.848
7.864
7.92
7.92
7.836
7.884
7.908
7.932
7.924
7.908
7.976
8.004
8.036
8.052
8.12
8.088
8.04
7.972
8.004
7.996
7.956
7.884
7.876
7.9
7.872
7.816
7.832
7.86
7.86
7.828
7.824
7.86
7.868
7.832
7.836
7.864
7.876
7.844
7.808
7.812
7.72
7.644
7.82
8.212
8.844
9.58
10.164
10.76
10.98
10.984
10.38
9.128
8.164
7.78
7.56
7.572
7.732
7.824
7.876
7.932
7.988
7.952
7.924
7.892
7.944
7.976
7.964
7.908
7.928
7.976
7.988
7.92
7.96
8
8
7.948
7.968
8.02
8
7.968
7.988
8.048
8.056
8.012
8.016
8.072
8.076
8.052
8.048
8.08
8.128
8.132
8.088
8.132
8.176
8.18
8.14
8.188
8.264
8.26
8.256
8.284
8.356
8.36
8.368
8.404
8.484
8.528
8.56
8.564
8.64
8.688
8.732
8.748
8.824
8.86
8.904
8.884
8.896
8.892
8.848
8.74
8.688
8.648
8.544
8.444
8.344
8.316
8.28
8.172
8.124
8.128
8.092
8.028
7.988
8.016
8.016
7.984
7.96
7.956
7.984
7.976
7.936
7.948
7.968
7.956
7.924
7.948
7.992
8
7.948
7.944
7.996
7.984
7.948
7.964
7.988
7.992
7.964
7.92
7.98
7.984
7.976
7.952
7.976
8
7.98
7.924
7.968
7.992
7.984
7.944
7.892
7.984
7.992
7.924
7.952
7.984
7.976
7.932
7.96
7.98
7.984
7.956
7.952
7.968
7.972
7.972
7.964
7.968
7.996
7.952
7.96
7.972
7.992
8.032
7.992
8.028
8.068
8.052
8.04
8.052
8.14
8.188
8.184
8.196
8.184
8.108
8.088
8.06
8.064
8.048
8.056
8.004
7.988
8.024
7.976
7.948
7.952
7.98
8.004
7.948
7.976
7.996
7.984
7.944
7.948
7.968
8
7.94
7.868
7.8
7.896
8.144
8.576
9.292
9.928
10.532
10.968
11.056
10.956
10.04
8.772
8.008
7.8
7.74
7.788
7.868
8.004
8.06
8.056
8.02
8.072
8.072
8.02
8.02
8.076
8.052
8.048
8.008
8.088
8.088
8.064
8.048
8.068
8.092
8.072
8.06
8.068
8.124
8.124
8.076
8.084
8.144
8.132
8.096
8.124
8.156
8.208
8.132
8.136
8.196
8.192
8.196
8.192
8.26
8.28
8.268
8.256
8.284
8.34
8.352
8.348
8.388
8.46
8.496
8.48
8.552
8.62
8.652
8.672
8.716
8.808
8.84
8.852
8.876
8.94
8.948
8.948
8.916
8.944
8.86
8.788
8.664
8.608
8.548
8.5
8.364
8.304
8.308
8.232
8.132
8.108
8.116
8.088
8.024
8.024
8.044
8.036
8.008
7.96
8.012
8.024
7.984
7.98
8.008
8.012
7.98
7.964
7.996
8.012
8.004
7.984
8.008
8.04
8.008
7.96
7.98
8.012
8.004
7.98
7.988
8.012
8
7.992
7.98
8.02
8.02
8.004
7.984
8.02
8.004
7.996
7.948
7.98
8
7.992
7.98
7.972
7.996
7.984
7.944
7.968
8.016
8.016
7.96
7.956
8.012
7.968
7.98
7.964
7.996
8
7.976
7.964
7.976
8.004
7.98
7.972
7.984
8.04
8.044
8
8.028
8.084
8.12
8.14
8.172
8.224
8.144
8.068
8.056
8.1
8.052
8.02
7.996
8.016
7.98
7.972
7.92
7.948
7.968
7.948
7.9
7.944
7.988
7.968
7.916
7.932
7.968
7.96
7.908
7.932
7.908
7.816
7.812
8.056
8.508
9.164
9.788
10.388
10.972
11.068
10.988
10.176
8.928
8.084
7.76
7.612
7.736
7.884
7.96
8.012
8.056
8.056
8.024
8.012
8
8.048
8.032
7.992
8
8.032
8.04
8.012
8.012
8.052
8.072
8.052
8.032
8.064
8.072
8.08
8.052
8.064
8.128
8.116
8.076
8.104
8.14
8.124
8.12
8.124
8.2
8.172
8.164
8.152
8.212
8.232
8.204
8.232
8.276
8.304
8.32
8.308
8.36
8.432
8.428
8.456
8.512
8.56
8.604
8.58
8.672
8.756
8.768
8.788
8.824
8.916
8.944
8.916
8.932
8.94
8.94
8.868
8.792
8.736
8.656
8.556
8.432
8.416
8.38
8.28
8.208
8.188
8.184
8.124
8.052
8.064
8.084
8.076
8.02
8.008
8.032
8.052
8
7.984
8.028
8
8.004
8
8.036
8.028
8
7.972
8.02
8.032
8.04
7.98
8.012
8.048
8.02
7.98
8.004
8.048
8.044
8.008
7.996
8.036
8.028
8
7.96
8.04
8.04
8
7.992
8.028
8.044
8.008
7.968
8
8.04
8.02
7.964
8
8.032
8.008
7.976
7.98
8.012
8.02
7.984
7.964
8.02
7.992
7.964
7.96
7.992
8.02
7.972
7.964
7.996
8.004
7.992
7.964
8
8.008
8.016
7.972
7.988
8.02
8
7.98
8
8.016
7.988
7.972
7.98
8.016
8.02
7.992
7.984
8.052
8.064
8.052
8.052
8.1
8.096
8.12
8.124
8.2
8.256
8.228
8.172
8.128
8.112
8.096
8.052
8.056
8.064
8.064
7.988
7.976
7.992
7.984
7.952
7.96
8.012
8.02
7.968
7.972
8.004
8
7.98
7.948
7.988
7.988
7.848
7.792
7.964
8.308
8.836
9.464
10.068
10.728
11.012
11.036
10.72
9.652
8.472
7.872
7.672
7.704
7.84
7.9
7.976
8.1
8.104
8.052
8.032
8.048
8.052
8.056
8.016
8.044
8.092
8.064
8.056
8.064
8.104
8.096
8.044
8.064
8.108
8.112
8.084
8.1
8.128
8.12
8.096
8.092
8.14
8.148
8.152
8.14
8.168
8.192
8.2
8.172
8.204
8.256
8.264
8.256
8.26
8.308
8.312
8.288
8.34
8.396
8.408
8.424
8.436
8.516
8.532
8.564
8.588
8.676
8.704
8.752
8.788
8.86
8.9
8.932
8.932
8.976
9.012
9.02
8.936
8.916
8.904
8.792
8.672
8.6
8.568
8.476
8.4
8.304
8.288
8.228
8.184
8.132
8.152
8.144
8.112
8.084
8.092
8.084
8.056
8.052
8.06
8.068
8.056
8.04
8.052
8.064
8.048
8.064
8.056
8.088
8.092
8.06
8.036
8.08
8.064
8.064
8.016
8.1
8.084
8.08
8.04
8.064
8.072
8.06
8.032
8.056
8.096
8.068
8.04
8.044
8.084
8.064
8.02
8.032
8.068
8.044
8.028
8.02
8.032
8.048
8.032
8.012
8.048
8.068
8.012
7.996
8.02
8.056
8.036
8
8.024
8.048
8.012
8.004
7.992
8.036
8.016
7.996
8.016
8.06
8.04
8.004
7.98
8.02
8.032
8.012
7.984
8.028
8.04
8.016
7.98
8.016
8.036
8.028
7.992
8.036
8.056
8.02
7.996
8
8.04
8.032
8.004
8
8.048
8.004
8.02
8.004
8.052
8.004
8.008
8.004
8.052
8.056
8.012
8.008
8.012
8.04
8.04
8.016
8.028
8.044
8.032
7.988
8.036
8.076
8.08
8.08
8.076
8.14
8.16
8.18
8.2
8.248
8.208
8.152
8.096
8.128
8.12
8.048
8.032
8.052
8.056
8.044
7.984
8.004
8.036
8.004
7.992
7.992
8.012
8.012
8.004
7.964
8.012
8.02
7.988
7.924
7.856
7.888
8.116
8.5
9.156
9.768
10.368
10.88
11.048
11.048
10.384
9.1
8.112
7.76
7.624
7.708
7.844
7.996
8.1
8.096
8.084
8.104
8.072
8.044
8.02
8.092
8.08
8.076
8.056
8.1
8.088
8.06
8.068
8.104
8.112
8.088
8.088
8.1
8.14
8.104
8.084
8.12
8.148
8.136
8.12
8.136
8.184
8.172
8.156
8.176
8.228
8.22
8.224
8.216
8.264
8.3
8.272
8.264
8.304
8.348
8.36
8.352
8.396
8.464
8.472
8.48
8.52
8.612
8.624
8.656
8.652
8.744
8.792
8.84
8.872
8.944
8.972
8.96
8.98
9.004
8.992
8.924
8.868
8.824
8.76
8.644
8.54
8.48
8.424
8.324
8.264
8.22
8.208
8.156
8.08
8.076
8.108
8.064
8.028
8.04
8.06
8.052
8.012
7.996
8.024
8.004
8.004
7.98
8.02
8.048
8.004
7.972
7.98
8.032
7.988
7.972
7.976
8.004
7.996
7.976
7.968
7.996
7.992
7.964
7.968
8.016
7.984
7.968
7.972
7.992
8.004
7.976
7.948
7.98
8
7.968
7.932
7.964
7.96
7.964
7.956
7.944
7.968
7.94
7.9
7.928
7.976
7.96
7.924
7.952
7.972
7.964
7.94
7.924
7.928
7.956
7.924
7.92
7.936
7.956
7.92
7.9
7.92
7.936
7.92
7.92
7.904
7.924
7.928
7.888
7.888
7.936
7.944
7.888
7.904
7.94
7.928
7.904
7.908
7.916
7.944
7.916
7.9
7.936
7.96
7.924
7.924
7.948
8.012
8.02
8.02
8.052
8.128
8.14
8.112
8.048
8.064
8.024
7.98
7.944
7.96
7.948
7.9
7.864
7.908
7.932
7.872
7.876
7.9
7.884
7.884
7.876
7.876
7.936
7.872
7.856
7.86
7.904
7.8
7.668
7.724
8.016
8.452
9.168
9.812
10.456
10.916
10.924
10.772
9.912
8.664
7.86
7.612
7.548
7.632
7.72
7.808
7.92
8.004
7.948
7.92
7.908
7.94
7.92
7.924
7.908
7.98
7.972
7.932
7.916
7.984
7.968
7.952
7.96
7.992
8.008
7.976
7.976
8
8.016
7.992
7.996
8.02
8.064
8.028
8.012
8.02
8.096
8.104
8.056
8.08
8.124
8.132
8.104
8.124
8.176
8.172
8.176
8.204
8.256
8.284
8.276
8.292
8.34
8.42
8.4
8.456
8.516
8.552
8.6
8.608
8.668
8.764
8.756
8.792
8.848
8.896
8.884
8.84
8.796
8.752
8.692
8.608
8.496
8.464
8.396
8.296
8.208
8.172
8.132
8.056
8.028
7.988
8
7.968
7.92
7.924
7.944
7.924
7.888
7.916
7.92
7.892
7.884
7.864
7.908
7.936
7.888
7.884
7.908
7.92
7.892
7.868
7.904
7.932
7.888
7.888
7.904
7.928
7.912
7.872
7.888
7.928
7.928
7.892
7.888
7.912
7.904
7.868
7.888
7.896
7.916
7.876
7.884
7.908
7.916
7.872
7.876
7.884
7.924
7.852
7.852
7.876
7.896
7.888
7.84
7.852
7.916
7.884
7.864
7.852
7.888
7.9
7.852
7.856
7.888
7.884
7.872
7.832
7.884
7.868
7.82
7.86
7.884
7.924
7.876
7.872
7.892
7.916
7.916
7.892
7.912
7.988
7.976
7.996
8.024
8.128
8.116
8.052
8.004
8.016
8
7.96
7.912
7.944
7.94
7.888
7.852
7.86
7.888
7.868
7.844
7.872
7.912
7.852
7.82
7.848
7.88
7.864
7.836
7.84
7.88
7.804
7.672
7.748
8.028
8.476
9.108
9.732
10.368
10.884
10.924
10.844
10.04
8.792
7.932
7.64
7.596
7.708
7.804
7.84
7.948
8.004
7.972
7.924
7.94
7.976
7.972
7.936
7.96
7.988
8
7.96
7.956
8.004
8.012
7.976
7.98
8.024
8.036
8.008
8.008
8.012
8.068
8.016
8.024
8.072
8.104
8.06
8.06
8.06
8.136
8.12
8.088
8.116
8.176
8.18
8.176
8.176
8.216
8.236
8.212
8.248
8.296
8.344
8.344
8.368
8.428
8.464
8.504
8.54
8.608
8.672
8.708
8.712
8.748
8.832
8.892
8.88
8.932
8.972
8.964
8.9
8.844
8.82
8.744
8.6
8.528
8.48
8.436
8.336
8.252
8.212
8.196
8.108
8.064
8.06
8.056
8.02
7.996
7.988
8.008
8.032
7.984
7.976
8
7.992
7.948
7.968
7.984
8.008
7.972
7.96
7.976
7.98
7.956
7.948
7.976
8.02
7.988
7.964
7.988
8
8.004
7.956
7.984
8.016
8.004
7.948
7.976
8.012
8.008
7.944
7.972
7.996
8.028
7.98
7.964
7.984
7.988
7.964
7.944
7.976
7.992
7.976
7.952
7.972
7.984
7.984
7.936
7.96
8.012
7.988
7.94
7.932
7.964
7.988
7.92
7.952
8
7.996
7.948
7.928
7.964
7.984
7.944
7.936
7.984
8.008
7.98
7.94
7.952
7.996
7.948
7.932
7.948
8
7.992
7.936
7.936
7.98
7.988
7.948
7.984
8.032
8.08
8.048
8.02
8.104
8.172
8.168
8.168
8.216
8.192
8.12
8.048
8.068
8.08
8.048
8.004
8.004
8.036
8.016
7.948
7.948
7.964
7.988
7.948
7.932
7.992
7.992
7.96
7.932
7.96
7.992
7.956
7.872
7.832
7.904
8.128
8.536
9.136
9.776
10.372
10.856
10.976
10.984
10.232
8.872
7.988
7.676
7.632
7.724
7.852
7.992
8.076
8.056
8.032
8.044
8.06
8.032
8.008
8.032
8.048
8.064
8
8.016
8.08
8.068
8.02
8.04
8.108
8.1
8.056
8.048
8.108
8.128
8.076
8.068
8.124
8.14
8.104
8.088
8.14
8.168
8.168
8.136
8.184
8.224
8.216
8.172
8.208
8.288
8.284
8.264
8.308
8.344
8.36
8.348
8.36
8.452
8.484
8.508
8.532
8.62
8.688
8.688
8.708
8.788
8.856
8.88
8.9
8.968
9.008
8.988
8.976
8.988
8.992
8.92
8.808
8.744
8.668
8.596
8.484
8.396
8.396
8.336
8.248
8.184
8.192
8.176
8.112
8.072
8.084
8.104
8.044
8.012
8.032
8.044
8.04
8.008
8.024
8.068
8.064
8.02
8.036
8.044
8.06
8.02
8.028
8.068
8.084
8.036
8.016
8.06
8.08
8.02
8.004
8.052
8.084
8.032
8.012
8.04
8.052
8.028
8.004
7.996
8.068
8.068
8.016
8.004
8.044
8.044
8
7.996
8.032
8.048
8.004
7.988
8.012
8.04
7.988
7.98
8.036
8.064
8.032
7.972
8
8.044
8.024
7.98
8.02
8.032
8.032
7.968
7.996
8.012
8.028
7.992
8.012
8.04
8.04
7.976
7.96
8.008
8.024
7.98
7.992
8.016
8.04
8.016
7.968
8
8.048
8.02
8
8.024
8.056
8.072
8.032
8.032
8.108
8.128
8.112
8.192
8.264
8.288
8.208
8.112
8.124
8.136
8.084
8.024
8.076
8.08
8.052
7.996
7.976
8.036
8.008
7.96
7.988
8.032
8.016
7.96
7.964
8.02
8.004
7.988
7.968
8.008
7.952
7.812
7.88
8.2
8.672
9.264
9.86
10.524
11.024
11.072
10.956
10.08
8.824
7.968
7.624
7.584
7.788
7.88
7.956
8.072
8.136
8.096
8.052
8.04
8.072
8.08
8.052
8.04
8.072
8.084
8.068
8.056
8.08
8.116
8.076
8.064
8.084
8.132
8.124
8.088
8.108
8.152
8.148
8.112
8.112
8.18
8.192
8.128
8.16
8.208
8.208
8.168
8.192
8.248
8.272
8.244
8.244
8.3
8.352
8.32
8.312
8.388
8.432
8.46
8.444
8.508
8.572
8.608
8.6
8.648
8.744
8.788
8.792
8.82
8.92
8.972
8.964
8.964
9.048
9.052
9.008
8.952
8.904
8.864
8.768
8.632
8.572
8.568
8.472
8.348
8.28
8.284
8.208
8.152
8.136
8.14
8.136
8.06
8.032
8.068
8.064
8.016
8.012
8.056
8.072
8.028
7.988
8.024
8.068
8
7.996
8.024
8.076
8.056
8.004
8.044
8.06
8.04
8.008
8.012
8.056
8.068
7.996
8.012
8.048
8.048
8.012
8
8.032
8.064
8.036
7.98
8.02
8.052
8.012
8.024
8.02
8.064
8.04
7.976
8.016
8.036
8.032
7.972
8.008
8.052
8.02
7.976
7.984
8.016
8.004
7.992
7.972
8.016
8
7.996
7.964
7.992
8.016
8.004
7.948
8.004
8.016
8.012
7.952
7.952
8.02
8.008
7.968
7.976
8
8.008
7.944
7.956
8.02
8.024
7.976
7.908
8
8.028
7.964
7.964
7.976
8.024
8.02
7.964
8.004
8.036
8.012
7.988
8.008
8.044
8.068
8.056
8.1
8.156
8.212
8.192
8.192
8.204
8.172
8.096
8.092
8.08
8.06
8.024
7.992
8.004
8.016
7.984
7.94
7.964
8
7.98
7.932
7.944
8.004
7.992
7.952
7.948
7.984
7.988
7.888
7.804
7.812
8.012
8.32
8.856
9.584
10.216
10.756
10.988
11.016
10.636
9.408
8.236
7.752
7.572
7.616
7.696
7.84
8.02
8.084
8.028
8.004
8.048
8.036
7.996
7.992
8.04
8.056
7.992
8
8.068
8.06
8.012
8.016
8.04
8.112
8.064
8.056
8.06
8.092
8.084
8.052
8.076
8.136
8.112
8.092
8.088
8.144
8.16
8.128
8.148
8.204
8.224
8.2
8.192
8.236
8.256
8.248
8.26
8.304
8.352
8.364
8.352
8.404
8.452
8.476
8.48
8.54
8.636
8.652
8.656
8.72
8.796
8.84
8.844
8.868
8.96
9
8.96
8.94
8.94
8.952
8.848
8.748
8.7
8.632
8.544
8.42
8.364
8.348
8.268
8.172
8.148
8.136
8.1
8.016
7.992
8.044
8.048
7.988
7.964
8.024
8.036
7.96
7.948
7.972
8.004
7.996
7.96
7.992
8.008
7.98
7.952
7.964
8.008
8.012
7.96
7.992
8.032
8.016
7.964
7.964
8.008
8.008
7.952
7.968
7.976
7.996
7.964
7.944
7.972
7.992
7.98
7.96
7.964
7.992
7.932
7.908
7.956
7.984
7.96
7.916
7.948
7.98
7.956
7.92
7.908
7.976
7.968
7.9
7.928
7.96
7.956
7.928
7.884
7.924
7.96
7.932
7.892
7.912
7.932
7.916
7.896
7.904
7.96
7.936
7.888
7.896
7.956
7.916
7.88
7.892
7.944
7.956
7.916
7.916
7.936
7.944
7.904
7.896
7.94
7.948
7.928
7.904
7.936
7.952
7.936
7.892
7.924
7.968
7.94
7.892
7.948
7.992
7.976
7.948
7.988
8.056
8.1
8.108
8.128
8.184
8.148
8.048
8.024
8.032
8.02
7.972
7.92
7.948
7.964
7.904
7.848
7.908
7.92
7.908
7.86
7.884
7.92
7.916
7.884
7.896
7.916
7.92
7.872
7.864
7.784
7.748
7.896
8.236
8.884
9.6
10.156
10.724
10.976
11.016
10.544
9.264
8.212
7.764
7.608
7.592
7.732
7.86
7.96
7.992
7.996
8.044
8.024
7.964
7.976
8.008
8
7.972
7.96
8.016
8.044
8
7.992
8.028
8.024
8.012
8
8.04
8.06
8.072
8.032
8.06
8.096
8.088
8.064
8.084
8.136
8.124
8.076
8.12
8.156
8.192
8.136
8.172
8.208
8.24
8.208
8.188
8.264
8.304
8.316
8.312
8.364
8.42
8.436
8.42
8.488
8.54
8.588
8.572
8.656
8.74
8.8
8.768
8.812
8.9
8.908
8.932
8.88
8.992
8.944
8.888
8.78
8.756
8.696
8.6
8.504
8.46
8.352
8.328
8.232
8.168
8.176
8.14
8.04
8.036
8.04
8.068
8.016
7.996
8.004
8.036
7.976
7.992
7.984
8.044
7.896
7.956
7.98
8.036
7.996
7.976
7.956
8.036
8.048
7.98
7.98
8
8.06
7.972
8.028
8.008
8.02
7.984
7.984
8.024
8.048
8.012
7.996
8.036
8.04
7.98
7.98
7.98
8.008
7.964
8.02
7.956
8.024
8.004
7.948
7.996
8.024
8.02
7.936
7.944
7.984
7.976
7.98
7.94
8.028
8.024
7.924
7.964
7.992
8.02
7.996
7.964
7.98
8.036
8.016
7.94
7.968
7.996
7.976
7.968
7.96
8.04
7.992
7.988
7.944
8.036
8.016
7.968
7.936
8.024
8.012
7.968
7.96
8.004
8.028
7.98
7.988
7.996
8.044
8.052
7.988
8.032
8.044
8.068
8.068
8.128
8.168
8.232
8.26
8.216
8.22
8.16
8.12
8.076
8.096
8.1
8.06
8.016
8.04
8.056
7.96
7.948
8.008
8.032
7.984
7.948
7.976
8.016
7.992
7.948
7.96
8.008
7.972
7.884
7.808
7.92
8.164
8.54
9.092
9.72
10.34
10.868
10.992
11.04
10.376
9.008
7.944
7.612
7.54
7.656
7.788
7.932
8.112
8.112
8.048
8.048
8.088
8.072
8.032
8.036
8.096
8.112
8.068
8.072
8.096
8.1
8.084
8.032
8.104
8.128
8.104
8.072
8.12
8.168
8.12
8.096
8.136
8.172
8.188
8.144
8.14
8.192
8.192
8.168
8.168
8.216
8.236
8.208
8.22
8.272
8.304
8.292
8.28
8.328
8.388
8.392
8.38
8.428
8.512
8.516
8.532
8.564
8.664
8.696
8.72
8.752
8.86
8.876
8.884
8.908
8.992
9.044
9.016
8.972
9.004
8.96
8.84
8.732
8.696
8.616
8.52
8.412
8.38
8.34
8.24
8.164
8.14
8.164
8.148
8.068
8.048
8.048
8.052
8.012
7.972
8.04
8.044
8
7.972
8.016
8.028
7.988
7.976
8.02
8.044
7.972
7.964
7.98
8
8
7.952
7.98
8.024
8.012
7.968
7.96
7.988
8.004
7.96
7.952
8.016
7.996
7.948
7.944
7.968
7.992
7.952
7.932
7.96
7.992
7.968
7.928
7.94
7.984
7.952
7.916
7.916
7.968
7.964
7.908
7.912
7.924
7.956
7.908
7.908
7.976
7.964
7.904
7.912
7.948
7.948
7.888
7.876
7.928
7.952
7.924
7.936
7.948
8.008
8.024
8.004
8.088
8.188
8.192
8.068
8.012
8.04
8.02
7.972
7.952
7.972
7.94
7.888
7.848
7.908
7.916
7.86
7.844
7.892
7.904
7.848
7.812
7.856
7.872
7.868
7.836
7.828
7.888
7.804
7.644
7.656
7.936
8.384
9.096
9.78
10.404
10.9
10.888
10.724
9.852
8.58
7.84
7.616
7.508
7.556
7.68
7.768
7.872
7.956
7.944
7.896
7.904
7.928
7.9
7.876
7.88
7.904
7.896
7.876
7.9
7.936
7.928
7.9
7.884
7.956
7.948
7.924
7.9
7.972
7.984
7.94
7.924
7.968
8.004
7.98
7.94
7.996
8.04
8.004
7.964
8.012
8.076
8.096
8.064
8.092
8.124
8.148
8.112
8.132
8.192
8.224
8.244
8.244
8.308
8.364
8.368
8.368
8.456
8.536
8.532
8.56
8.636
8.696
8.728
8.696
8.756
8.804
8.788
8.744
8.7
8.668
8.604
8.48
8.36
8.32
8.268
8.18
8.088
8.076
8.052
7.956
7.908
7.916
7.904
7.868
7.832
7.86
7.864
7.828
7.784
7.804
7.836
7.856
7.796
7.788
7.852
7.844
7.808
7.776
7.8
7.844
7.804
7.752
7.812
7.828
7.804
7.772
7.8
7.864
7.808
7.8
7.784
7.816
7.8
7.776
7.768
7.816
7.836
7.792
7.776
7.828
7.792
7.78
7.76
7.808
7.808
7.764
7.74
7.752
7.784
7.732
7.712
7.792
7.844
7.808
7.776
7.836
7.84
7.824
7.824
7.876
7.96
8
7.94
7.896
7.908
7.868
7.828
7.828
7.828
7.812
7.764
7.72
7.732
7.748
7.728
7.676
7.712
7.768
7.72
7.66
7.684
7.724
7.708
7.716
7.724
7.748
7.74
7.64
7.536
7.52
7.632
7.948
8.532
9.32
9.956
10.492
10.756
10.884
10.524
9.284
8.132
7.744
7.64
7.52
7.54
7.676
7.748
7.84
7.792
7.772
7.812
7.804
7.716
7.744
7.792
7.796
7.756
7.76
7.844
7.844
7.784
7.76
7.82
7.824
7.816
7.772
7.816
7.86
7.836
7.788
7.856
7.896
7.872
7.844
7.876
7.92
7.924
7.856
7.876
7.944
7.944
7.932
7.932
8.004
7.992
7.964
7.956
8.056
8.092
8.104
8.08
8.152
8.196
8.2
8.228
8.288
8.364
8.404
8.388
8.444
8.524
8.536
8.552
8.552
8.64
8.68
8.648
8.588
8.604
8.544
8.408
8.304
8.276
8.236
8.14
8.044
8.016
7.996
7.936
7.844
7.828
7.88
7.836
7.764
7.764
7.8
7.784
7.752
7.708
7.788
7.792
7.748
7.708
7.768
7.768
7.764
7.712
7.78
7.82
7.792
7.74
7.768
7.792
7.792
7.716
7.756
7.824
7.812
7.752
7.74
7.812
7.8
7.76
7.756
7.82
7.832
7.76
7.764
7.78
7.796
7.776
7.772
7.784
7.816
7.8
7.74
7.776
7.848
7.816
7.792
7.804
7.9
7.864
7.836
7.86
7.908
7.944
7.956
7.988
8.044
7.972
7.884
7.848
7.892
7.904
7.836
7.804
7.82
7.828
7.78
7.74
7.74
7.784
7.78
7.736
7.764
7.836
7.828
7.768
7.74
7.808
7.808
7.776
7.732
7.76
7.612
7.64
7.868
8.372
9.012
9.652
10.236
10.788
10.884
10.832
10.056
8.808
8.02
7.724
7.62
7.656
7.808
7.848
7.868
7.872
7.928
7.916
7.868
7.836
7.896
7.884
7.872
7.82
7.908
7.92
7.904
7.876
7.9
7.924
7.896
7.884
7.9
7.972
7.964
7.916
7.936
7.984
7.968
7.936
7.936
8.028
8.024
7.98
7.992
8.044
8.068
8.024
8.016
8.08
8.14
8.124
8.112
8.16
8.212
8.2
8.172
8.204
8.304
8.308
8.316
8.364
8.448
8.492
8.448
8.516
8.588
8.652
8.66
8.664
8.756
8.82
8.76
8.724
8.76
8.764
8.66
8.552
8.508
8.468
8.364
8.24
8.2
8.196
8.136
8.028
8
8.02
8.016
7.936
7.904
7.956
7.956
7.892
7.892
7.896
7.936
7.896
7.852
7.908
7.924
7.904
7.86
7.896
7.916
7.876
7.86
7.884
7.936
7.948
7.872
7.892
7.932
7.94
7.884
7.868
7.932
7.932
7.88
7.876
7.916
7.96
7.9
7.876
7.924
7.92
7.904
7.876
7.884
7.932
7.908
7.876
7.876
7.944
7.96
7.92
7.9
7.98
7.992
7.948
7.948
8.024
8.068
8.072
8.072
8.152
8.12
8.024
7.976
8.028
8.008
7.944
7.892
7.936
7.924
7.868
7.816
7.864
7.892
7.868
7.836
7.836
7.884
7.876
7.832
7.816
7.896
7.864
7.816
7.816
7.836
7.756
7.64
7.8
8.184
8.728
9.36
9.964
10.588
10.932
10.948
10.584
9.544
8.452
7.896
7.676
7.676
7.808
7.844
7.86
7.94
7.992
7.968
7.896
7.9
7.932
7.944
7.896
7.892
7.944
7.94
7.936
7.9
7.928
7.976
7.912
7.904
7.948
8.008
7.976
7.932
7.944
8.02
8
7.98
7.984
8.064
8.032
7.98
7.992
8.048
8.064
8.032
8.076
8.112
8.128
8.112
8.092
8.136
8.196
8.184
8.188
8.22
8.32
8.312
8.3
8.332
8.436
8.488
8.48
8.508
8.612
8.652
8.624
8.664
8.74
8.792
8.8
8.74
8.784
8.74
8.672
8.556
8.504
8.456
8.388
8.236
8.228
8.208
8.12
8.036
7.992
8.04
8.008
7.928
7.912
7.94
7.94
7.876
7.872
7.904
7.928
7.888
7.88
7.916
7.9
7.896
7.86
7.884
7.92
7.872
7.868
7.88
7.924
7.904
7.864
7.88
7.94
7.932
7.868
7.868
7.908
7.916
7.868
7.856
7.884
7.904
7.868
7.844
7.884
7.9
7.876
7.844
7.864
7.916
7.896
7.836
7.84
7.924
7.912
7.884
7.896
7.976
7.984
7.948
7.948
8.048
8.092
8.072
8.052
8.084
8.024
7.984
7.94
7.94
7.952
7.904
7.868
7.856
7.896
7.852
7.804
7.828
7.876
7.852
7.812
7.812
7.864
7.868
7.812
7.816
7.84
7.88
7.824
7.768
7.712
7.708
7.86
8.188
8.808
9.54
10.112
10.672
10.892
10.952
10.456
9.232
8.22
7.832
7.684
7.644
7.768
7.884
7.96
7.94
7.912
7.968
7.952
7.904
7.896
7.936
7.948
7.888
7.892
7.92
7.936
7.908
7.896
7.956
7.972
7.96
7.904
7.908
7.988
7.968
7.948
7.972
7.996
8.02
7.952
7.948
8.008
8.024
8.02
8.016
8.04
8.076
8.044
8.036
8.092
8.132
8.128
8.12
8.16
8.196
8.2
8.184
8.244
8.324
8.336
8.316
8.372
8.448
8.5
8.492
8.516
8.616
8.668
8.656
8.692
8.752
8.788
8.716
8.668
8.66
8.648
8.564
8.412
8.38
8.36
8.256
8.152
8.112
8.108
8.06
7.948
7.952
7.968
7.948
7.888
7.876
7.908
7.932
7.864
7.852
7.904
7.896
7.884
7.836
7.864
7.904
7.888
7.86
7.884
7.9
7.908
7.86
7.864
7.912
7.908
7.848
7.852
7.924
7.888
7.856
7.86
7.916
7.928
7.864
7.832
7.888
7.9
7.872
7.832
7.876
7.904
7.884
7.852
7.864
7.908
7.916
7.888
7.928
8
7.976
7.924
7.96
8.036
8.068
8.08
8.072
8.108
8.076
7.984
7.96
7.988
7.944
7.912
7.864
7.888
7.872
7.836
7.808
7.812
7.848
7.828
7.788
7.804
7.86
7.856
7.784
7.788
7.86
7.816
7.784
7.764
7.76
7.656
7.704
7.964
8.48
9.148
9.748
10.352
10.816
10.872
10.728
9.776
8.564
7.896
7.656
7.556
7.676
7.792
7.832
7.856
7.872
7.876
7.904
7.84
7.828
7.876
7.872
7.824
7.812
7.856
7.86
7.852
7.852
7.864
7.92
7.884
7.844
7.856
7.912
7.912
7.864
7.904
7.936
7.944
7.872
7.888
7.968
7.984
7.92
7.968
8.008
8.02
8
7.984
8.056
8.064
8.052
8.052
8.108
8.164
8.148
8.132
8.18
8.26
8.268
8.268
8.312
8.412
8.428
8.424
8.464
8.564
8.636
8.596
8.636
8.712
8.732
8.7
8.672
8.652
8.616
8.532
8.42
8.38
8.328
8.256
8.132
8.1
8.104
8.004
7.94
7.932
7.968
7.9
7.84
7.8
7.904
7.896
7.828
7.808
7.852
7.868
7.82
7.792
7.824
7.876
7.828
7.792
7.82
7.868
7.856
7.808
7.796
7.884
7.872
7.816
7.796
7.872
7.844
7.804
7.78
7.892
7.852
7.828
7.8
7.86
7.88
7.82
7.78
7.876
7.912
7.876
7.844
7.888
7.948
7.924
7.88
7.908
7.984
8.012
7.98
8.012
8.096
8.088
7.98
7.92
8
7.984
7.912
7.872
7.924
7.916
7.82
7.78
7.828
7.848
7.828
7.772
7.82
7.868
7.832
7.78
7.816
7.872
7.852
7.78
7.796
7.872
7.824
7.656
7.612
7.832
8.172
8.672
9.356
10.056
10.672
10.896
10.92
10.58
9.48
8.316
7.788
7.632
7.692
7.768
7.788
7.9
7.988
7.984
7.908
7.892
7.96
7.948
7.904
7.884
7.96
7.96
7.88
7.9
7.944
7.956
7.944
7.924
7.96
8.024
7.968
7.952
7.984
8.044
8.008
7.98
8.016
8.092
8.072
8.012
8.04
8.104
8.12
8.084
8.092
8.176
8.18
8.132
8.148
8.208
8.252
8.232
8.224
8.3
8.348
8.34
8.344
8.416
8.496
8.5
8.512
8.572
8.672
8.684
8.664
8.724
8.816
8.852
8.804
8.836
8.884
8.848
8.732
8.636
8.64
8.576
8.464
8.376
8.34
8.308
8.2
8.148
8.12
8.148
8.088
8.028
8.032
8.068
8.044
7.992
7.968
8.056
8.032
7.972
7.98
8.04
8.036
7.976
7.964
8.032
8.056
8.036
8
8.044
8.064
8.032
8.004
8.012
8.076
8.036
8.004
7.984
8.056
8.052
7.972
7.98
8.04
8.06
7.992
7.988
8.032
8.052
7.984
7.972
8.02
8.044
8.004
7.972
8.02
8.052
7.988
7.956
8.012
8.04
8.032
7.976
7.972
8.048
8.028
7.964
7.988
8.06
8.04
7.996
7.964
8.04
8.032
7.988
7.976
8.036
8.068
8.004
7.964
8.016
8.06
8.012
7.968
8.016
8.072
8.024
7.976
8.012
8.08
8.06
8.028
8.056
8.124
8.128
8.06
8.076
8.176
8.22
8.188
8.22
8.256
8.212
8.116
8.052
8.096
8.116
8.08
8.04
8.068
8.084
8.032
7.976
7.976
8.044
8.032
7.96
7.988
8.036
8.04
7.988
7.976
8.036
8.032
8.004
7.964
7.952
7.888
7.936
8.172
8.656
9.252
9.82
10.412
10.92
11.084
10.976
10.124
8.86
8.096
7.752
7.704
7.86
8.004
8.06
8.1
8.06
8.128
8.112
8.044
8.056
8.092
8.124
8.064
8.024
8.076
8.116
8.088
8.06
8.088
8.124
8.124
8.064
8.1
8.148
8.156
8.08
8.108
8.168
8.16
8.088
8.12
8.188
8.208
8.164
8.148
8.212
8.236
8.208
8.184
8.236
8.308
8.264
8.248
8.296
8.364
8.344
8.328
8.376
8.468
8.484
8.472
8.524
8.608
8.648
8.636
8.672
8.776
8.84
8.82
8.828
8.9
8.96
8.948
8.948
8.956
8.968
8.9
8.788
8.736
8.708
8.596
8.48
8.416
8.412
8.356
8.248
8.204
8.22
8.192
8.104
8.1
8.12
8.172
8.072
8.056
8.112
8.12
8.084
8.052
8.1
8.14
8.104
8.072
8.076
8.12
8.116
8.052
8.068
8.144
8.124
8.052
8.052
8.116
8.1
8.052
8.052
8.12
8.112
8.072
8.036
8.068
8.088
8.04
8.036
8.076
8.112
8.064
8.024
8.044
8.076
8.056
8.02
8.02
8.108
8.088
8.004
8.012
8.088
8.088
8.036
8.028
8.088
8.084
8.024
7.984
8.036
8.064
8.036
8.02
8.036
8.084
8.028
7.992
8.028
8.056
8.02
8
8.036
8.092
8.044
8
8
8.056
8.06
8.012
8.016
8.052
8.068
8.02
8.012
8.032
8.056
8.024
8.012
8.024
8.064
8.028
7.968
8.008
8.064
8.04
8
8.008
8.064
8.04
7.972
8.004
8.048
8.06
8.012
8
8.024
8.052
8.008
7.992
8.004
8.06
8.02
7.988
8.036
8.052
8.012
7.976
7.988
8.044
8.008
8.004
7.996
8.064
8.032
7.992
7.984
8.056
8.04
8.004
8.004
8.04
8.072
8.008
7.988
8.012
8.068
8.024
7.996
8.032
8.044
8.02
7.984
7.996
8.056
8.04
7.988
8
8.04
8.048
7.976
7.984
8.04
8.032
8.008
7.988
8.036
8.048
8
8.004
8.036
8.076
8.052
8.032
8.048
8.088
8.08
8.04
8.072
8.128
8.156
8.12
8.172
8.276
8.24
8.156
8.104
8.144
8.168
8.084
8.004
8.076
8.088
8.012
7.968
8.008
8.044
8.004
7.964
7.972
8.032
8.012
7.968
7.98
8.032
8.048
7.964
7.976
7.976
7.888
7.88
8.148
8.596
9.156
9.672
10.28
10.844
11.032
10.976
10.392
9.132
8.196
7.736
7.6
7.776
7.928
8.008
8.048
8.116
8.132
8.092
8.044
8.04
8.088
8.104
8.02
8.064
8.088
8.112
8.076
8.044
8.092
8.112
8.084
8.076
8.124
8.152
8.132
8.084
8.124
8.184
8.152
8.128
8.152
8.208
8.18
8.136
8.168
8.228
8.228
8.192
8.2
8.284
8.28
8.224
8.244
8.288
8.348
8.308
8.312
8.388
8.444
8.424
8.404
8.464
8.556
8.536
8.568
8.616
8.74
8.728
8.732
8.764
8.856
8.908
8.892
8.908
9
9.012
8.948
8.932
8.908
8.888
8.74
8.696
8.632
8.596
8.48
8.376
8.34
8.336
8.26
8.156
8.176
8.18
8.172
8.088
8.084
8.112
8.104
8.052
8.056
8.104
8.124
8.064
8.052
8.088
8.116
8.064
8.028
8.08
8.096
8.072
8.044
8.048
8.104
8.084
8.028
8.044
8.116
8.064
8.048
8.024
8.084
8.08
8.048
8.02
8.044
8.092
8.016
8.028
8.072
8.092
8.032
8.02
8.032
8.072
8.028
7.988
8.02
8.072
8.048
8.004
8.004
8.056
8.036
8
8
8.04
8.044
7.988
7.98
8.04
8.036
7.976
7.984
8.032
8.064
8.008
8.004
8.024
8.032
8.008
7.976
8.008
8.064
8.044
7.984
7.98
8.052
8.028
7.988
7.988
8.064
8.044
7.984
7.992
8.016
8.02
7.98
7.984
8.044
8.076
8.008
7.992
8.004
8.044
8
7.976
8.016
8.048
8.036
7.988
7.968
8.052
8.032
7.976
8.008
8.056
8.056
7.988
7.98
8.036
8.048
7.996
8.008
8.052
8.112
8.056
8.02
8.104
8.112
8.084
8.1
8.192
8.26
8.252
8.216
8.192
8.168
8.144
8.084
8.084
8.12
8.112
8.016
8.004
8.044
8.032
7.988
7.98
8.024
8.024
7.98
7.976
7.992
8.048
8.004
7.968
8.012
8.044
7.928
7.792
7.86
8.152
8.584
9.18
9.84
10.48
10.956
10.984
10.916
10.188
8.916
7.984
7.712
7.684
7.796
7.872
7.94
8.064
8.14
8.092
8.052
8.076
8.092
8.06
8.036
8.052
8.092
8.072
8.04
8.06
8.096
8.084
8.044
8.076
8.132
8.132
8.088
8.1
8.14
8.168
8.112
8.1
8.16
8.204
8.16
8.148
8.18
8.228
8.192
8.18
8.204
8.284
8.268
8.248
8.276
8.344
8.324
8.304
8.324
8.392
8.456
8.388
8.42
8.492
8.568
8.564
8.576
8.668
8.748
8.736
8.756
8.832
8.912
8.916
8.896
8.956
9.044
9.016
8.976
8.952
8.96
8.884
8.728
8.672
8.656
8.592
8.456
8.384
8.368
8.308
8.208
8.168
8.18
8.172
8.1
8.06
8.096
8.112
8.044
8.016
8.052
8.096
8.068
8.024
8.032
8.064
8.072
8.02
8.032
8.056
8.088
8.04
8.012
8.064
8.108
8.024
8.016
8.072
8.116
8.04
8.016
8.048
8.096
8.048
8.02
8.048
8.092
8.068
8.012
8.032
8.084
8.08
8.012
8.036
8.084
8.108
8.004
8.004
8.044
8.072
8.012
7.996
8.036
8.076
7.984
7.988
8
8.028
8.016
7.952
7.996
8.052
8
7.972
7.988
8.036
8.02
7.976
7.976
8.028
8.028
7.948
7.972
7.98
8.032
7.948
7.952
7.996
8.012
7.976
7.928
7.96
8.02
7.98
7.952
7.972
8.02
7.984
7.912
7.94
7.988
8.008
7.972
7.964
8
8.004
7.952
7.944
7.976
8.024
7.948
7.936
7.984
8.008
7.956
7.948
7.98
8.016
7.992
7.936
7.972
8.012
7.996
7.932
7.932
8.008
7.996
7.956
7.968
8.016
8.036
7.992
8.008
8.044
8.1
8.076
8.104
8.196
8.24
8.184
8.104
8.076
8.1
8.076
7.992
8.036
8.048
7.992
7.944
7.936
8
7.98
7.932
7.932
7.968
7.98
7.936
7.928
7.98
7.98
7.936
7.908
7.916
7.852
7.796
7.988
8.408
9.028
9.616
10.164
10.744
10.964
10.956
10.38
9.16
8.152
7.748
7.556
7.624
7.808
7.936
7.956
8.028
8.032
8.076
8
7.984
8.004
8.036
7.996
7.968
8.016
8.052
8.036
7.968
8.004
8.048
8.052
7.98
8.024
8.06
8.088
8.012
8.024
8.084
8.108
8.064
8.036
8.096
8.132
8.088
8.048
8.1
8.168
8.144
8.108
8.156
8.24
8.184
8.128
8.204
8.26
8.276
8.236
8.288
8.356
8.408
8.376
8.408
8.488
8.56
8.52
8.584
8.668
8.74
8.708
8.752
8.816
8.892
8.88
8.896
8.952
8.992
8.924
8.836
8.808
8.784
8.68
8.536
8.488
8.448
8.384
8.248
8.168
8.196
8.168
8.056
8.016
8.044
8.056
7.984
7.944
7.988
8.016
7.98
7.928
7.964
8
7.964
7.904
7.932
7.976
7.988
7.912
7.944
7.992
8.012
7.904
7.928
7.976
8
7.94
7.912
7.98
7.996
7.928
7.9
7.956
7.992
7.948
7.904
7.956
7.992
7.936
7.888
7.92
7.98
7.976
7.904
7.924
7.96
7.952
7.88
7.884
7.952
7.964
7.908
7.896
7.92
7.96
7.88
7.864
7.892
7.928
7.904
7.88
7.892
7.924
7.904
7.828
7.872
7.924
7.924
7.868
7.884
7.892
7.92
7.86
7.836
7.896
7.944
7.864
7.844
7.888
7.936
7.86
7.828
7.896
7.924
7.876
7.836
7.868
7.924
7.896
7.828
7.872
7.904
7.896
7.848
7.848
7.884
7.896
7.84
7.844
7.908
7.928
7.872
7.86
7.892
7.948
7.88
7.904
7.96
8.004
7.984
7.98
8.044
8.096
8.108
8.04
7.988
8.024
8.008
7.912
7.9
7.956
7.944
7.86
7.844
7.888
7.896
7.828
7.832
7.868
7.888
7.84
7.824
7.864
7.888
7.868
7.824
7.832
7.804
7.7
7.708
8.024
8.484
9.116
9.644
10.276
10.812
10.904
10.772
9.98
8.744
7.864
7.496
7.416
7.584
7.748
7.824
7.896
7.96
7.964
7.92
7.9
7.896
7.928
7.924
7.88
7.92
7.952
7.96
7.896
7.928
7.972
7.968
7.932
7.96
7.996
8.012
7.94
7.932
7.968
8.012
7.992
7.96
8.024
8.036
8.008
7.988
8.028
8.084
8.076
8.04
8.096
8.128
8.152
8.1
8.116
8.188
8.22
8.168
8.228
8.288
8.332
8.3
8.328
8.392
8.468
8.48
8.484
8.576
8.648
8.644
8.652
8.728
8.812
8.84
8.816
8.864
8.932
8.888
8.812
8.772
8.772
8.692
8.56
8.472
8.424
8.38
8.26
8.16
8.164
8.156
8.048
7.992
8.004
8.016
7.968
7.9
7.916
7.94
7.944
7.88
7.896
7.94
7.936
7.84
7.868
7.928
7.96
7.892
7.892
7.928
7.936
7.896
7.872
7.928
7.96
7.904
7.872
7.892
7.932
7.92
7.864
7.912
7.956
7.924
7.872
7.872
7.928
7.92
7.864
7.86
7.916
7.936
7.86
7.86
7.912
7.916
7.864
7.84
7.872
7.916
7.88
7.852
7.88
7.924
7.884
7.856
7.88
7.916
7.9
7.844
7.836
7.924
7.912
7.856
7.864
7.912
7.904
7.824
7.828
7.884
7.912
7.864
7.852
7.896
7.94
7.888
7.848
7.892
7.908
7.884
7.848
7.86
7.936
7.912
7.844
7.872
7.916
7.944
7.852
7.856
7.924
7.936
7.872
7.868
7.904
7.94
7.88
7.856
7.912
7.928
7.876
7.852
7.896
7.932
7.9
7.864
7.904
7.964
7.976
7.92
7.952
8.008
8.048
8.044
8.08
8.144
8.152
8.004
7.98
8.004
8.024
7.936
7.904
7.952
7.916
7.88
7.844
7.872
7.908
7.88
7.852
7.868
7.912
7.896
7.82
7.848
7.892
7.908
7.828
7.788
7.74
7.792
7.952
8.356
9.028
9.684
10.264
10.756
10.872
10.876
10.116
8.812
7.908
7.58
7.456
7.528
7.7
7.828
7.952
7.912
7.908
7.956
7.976
7.916
7.908
7.944
7.96
7.9
7.896
7.948
7.968
7.916
7.892
7.944
7.98
7.956
7.932
7.964
8
7.988
7.956
7.98
8
8.052
7.968
8.004
8.052
8.076
8.028
8.04
8.056
8.096
8.052
8.052
8.12
8.18
8.14
8.14
8.196
8.228
8.228
8.208
8.276
8.336
8.36
8.36
8.436
8.492
8.516
8.48
8.568
8.672
8.712
8.688
8.76
8.828
8.88
8.86
8.864
8.904
8.88
8.808
8.712
8.656
8.616
8.508
8.384
8.348
8.304
8.224
8.112
8.084
8.048
8.028
7.928
7.952
7.972
7.988
7.884
7.884
7.912
7.928
7.876
7.884
7.908
7.936
7.88
7.872
7.916
7.908
7.9
7.852
7.888
7.916
7.908
7.864
7.88
7.916
7.936
7.852
7.88
7.936
7.932
7.852
7.856
7.888
7.912
7.872
7.86
7.9
7.908
7.856
7.828
7.864
7.888
7.872
7.82
7.864
7.888
7.884
7.808
7.844
7.892
7.864
7.82
7.836
7.868
7.872
7.82
7.82
7.872
7.876
7.808
7.824
7.856
7.872
7.844
7.792
7.84
7.872
7.848
7.824
7.86
7.872
7.836
7.824
7.832
7.868
7.856
7.792
7.828
7.896
7.868
7.884
7.908
7.948
7.968
8
8.016
8.06
8.044
7.96
7.912
7.94
7.924
7.892
7.836
7.868
7.868
7.828
7.808
7.844
7.864
7.848
7.824
7.836
7.876
7.82
7.796
7.824
7.86
7.864
7.836
7.764
7.704
7.708
7.876
8.276
9
9.712
10.272
10.76
10.896
10.852
10.096
8.744
7.864
7.64
7.492
7.504
7.668
7.8
7.924
7.932
7.936
7.96
7.972
7.908
7.908
7.96
7.98
7.944
7.92
7.94
7.988
7.96
7.956
7.964
7.992
7.992
7.968
8
8.052
8.04
8
7.996
8.056
8.052
8.008
8.036
8.104
8.1
8.064
8.068
8.124
8.148
8.116
8.092
8.164
8.208
8.192
8.152
8.236
8.276
8.28
8.264
8.312
8.404
8.408
8.404
8.452
8.536
8.584
8.584
8.612
8.724
8.764
8.764
8.796
8.868
8.9
8.908
8.888
8.908
8.792
8.804
8.672
8.64
8.58
8.44
8.372
8.332
8.284
8.224
8.016
8.084
8.108
8.052
8.012
7.992
8.012
7.992
7.968
7.96
7.992
7.988
7.956
7.924
7.992
7.992
7.964
7.952
7.96
7.992
7.984
7.952
7.964
8.044
7.988
7.96
7.956
8.016
8.004
7.948
7.968
8.012
8.008
7.948
7.944
7.992
8.004
7.952
7.956
7.968
8
7.94
7.932
7.956
7.984
7.956
7.916
7.952
7.98
7.964
7.916
7.912
7.96
7.956
7.92
7.928
7.968
7.964
7.92
7.92
7.952
7.94
7.936
7.924
7.944
7.968
7.94
7.892
7.916
7.944
7.944
7.9
7.908
7.96
7.944
7.92
7.896
7.94
7.96
7.94
7.92
7.948
7.928
7.912
7.9
7.944
7.948
7.932
7.908
7.908
7.932
7.928
7.908
7.956
8.04
8.048
8.044
8.096
8.136
8.132
8.052
8.02
8.048
8.004
7.976
7.964
7.976
7.976
7.932
7.868
7.892
7.936
7.944
7.908
7.908
7.956
7.928
7.888
7.928
7.944
7.956
7.896
7.836
7.804
7.808
7.996
8.392
9.012
9.668
10.244
10.792
10.944
10.948
10.312
9.016
8.056
7.656
7.54
7.608
7.76
7.876
8
8
8.028
8.028
8.028
7.976
7.968
8.016
8.004
7.988
7.976
8.008
8.036
8
7.992
8.02
8.02
8.004
8.008
8.044
8.06
8.076
8.02
8.072
8.068
8.092
8.044
8.092
8.116
8.12
8.092
8.096
8.16
8.148
8.12
8.152
8.204
8.216
8.204
8.212
8.252
8.288
8.308
8.304
8.368
8.412
8.432
8.444
8.5
8.54
8.58
8.596
8.64
8.744
8.764
8.768
8.816
8.908
8.928
8.912
8.92
8.948
8.908
8.836
8.776
8.712
8.656
8.544
8.424
8.408
8.34
8.264
8.192
8.136
8.116
8.084
8.04
8.024
8.028
8
7.976
7.968
8.004
7.96
7.96
7.952
7.992
7.976
7.912
7.936
7.964
7.968
7.948
7.932
7.964
7.964
7.948
7.944
7.948
7.96
7.968
7.912
7.952
7.956
7.956
7.936
7.944
7.968
7.98
7.932
7.936
7.952
7.952
7.908
7.884
7.936
7.944
7.92
7.896
7.956
7.956
7.928
7.896
7.916
7.916
7.936
7.892
7.896
7.928
7.912
7.888
7.872
7.94
7.908
7.876
7.876
7.916
7.908
7.884
7.86
7.904
7.92
7.88
7.868
7.9
7.9
7.872
7.868
7.896
7.912
7.9
7.876
7.876
7.872
7.856
7.82
7.836
7.904
7.924
7.936
7.924
7.984
7.984
8.02
8.028
8.068
8.028
7.992
7.94
7.952
7.94
7.9
7.868
7.892
7.896
7.892
7.832
7.86
7.864
7.852
7.812
7.84
7.876
7.864
7.832
7.848
7.864
7.876
7.816
7.732
7.672
7.776
8.076
8.588
9.416
10.028
10.58
10.848
10.876
10.544
9.384
8.224
7.736
7.616
7.536
7.608
7.744
7.892
7.952
7.928
7.936
7.976
7.948
7.912
7.912
7.972
7.94
7.92
7.912
7.976
7.98
7.988
7.956
7.992
8.004
7.988
7.96
7.992
8.012
8.008
8
8.032
8.06
8.08
8.028
8.048
8.088
8.072
8.068
8.064
8.132
8.112
8.096
8.08
8.176
8.16
8.176
8.172
8.228
8.256
8.28
8.264
8.324
8.372
8.384
8.404
8.468
8.544
8.548
8.572
8.62
8.688
8.74
8.74
8.784
8.856
8.868
8.824
8.816
8.824
8.804
8.728
8.604
8.548
8.5
8.432
8.284
8.268
8.208
8.16
8.084
8.052
8.06
8.02
7.956
7.944
7.98
7.936
7.924
7.904
7.944
7.932
7.912
7.908
7.936
7.964
7.956
7.904
7.932
7.952
7.932
7.88
7.916
7.964
7.936
7.912
7.94
7.956
7.936
7.896
7.896
7.944
7.932
7.916
7.896
7.952
7.928
7.916
7.876
7.928
7.92
7.928
7.892
7.908
7.928
7.908
7.872
7.88
7.924
7.904
7.88
7.872
7.904
7.876
7.864
7.88
7.928
7.908
7.888
7.852
7.88
7.908
7.868
7.876
7.884
7.908
7.896
7.868
7.908
7.924
7.872
7.876
7.888
7.936
7.892
7.872
7.876
7.9
7.888
7.84
7.86
7.912
7.92
7.928
7.944
8.004
8
7.988
8.044
8.096
8.104
8.004
7.96
8.012
7.98
7.948
7.924
7.948
7.96
7.932
7.884
7.896
7.96
7.884
7.872
7.9
7.944
7.924
7.864
7.884
7.92
7.924
7.896
7.864
7.8
7.8
7.96
8.316
8.924
9.584
10.164
10.724
10.968
11.012
10.46
9.248
8.22
7.832
7.656
7.652
7.816
7.932
8.008
8.02
8.024
8.048
8.028
7.98
7.988
8.028
8.032
7.996
7.968
8.004
8.028
8.028
7.984
8.032
8.068
8.048
8.016
8.048
8.076
8.052
8.052
8.068
8.12
8.08
8.064
8.064
8.144
8.116
8.116
8.124
8.168
8.196
8.18
8.16
8.204
8.244
8.196
8.232
8.276
8.312
8.304
8.32
8.368
8.448
8.452
8.444
8.52
8.584
8.596
8.596
8.66
8.744
8.796
8.812
8.836
8.9
8.936
8.916
8.932
8.944
8.948
8.852
8.76
8.704
8.664
8.544
8.412
8.392
8.36
8.28
8.188
8.16
8.168
8.1
8.06
8.048
8.08
8.068
8.012
8.016
8.036
8.024
7.98
7.98
8.028
8.068
8.004
7.984
8.024
8.068
8.004
7.984
8.028
8.076
8.064
8.008
8.024
8.068
8.048
8.016
8.024
8.052
8.052
8.02
8.016
8.052
8.06
8
8.004
8.052
8.084
8.036
8.004
8.044
8.052
8.028
7.976
8.008
8.064
8.04
8.004
8.028
8.052
8.032
7.976
8.016
8.064
8.056
8.004
8.016
8.032
8.068
8.004
7.996
8.052
8.08
8.012
7.992
8.008
8.072
8.024
7.992
8.024
8.064
8.06
7.996
8.008
8.06
8.044
8
8.024
8.072
8.072
8.024
8.028
8.056
8.084
8
8.024
8.06
8.072
8.032
8.02
8.032
8.08
8.036
8.024
8.044
8.092
8.068
8.02
8.044
8.072
8.056
8.008
8.044
8.104
8.12
8.096
8.124
8.164
8.192
8.216
8.228
8.272
8.24
8.156
8.112
8.132
8.168
8.124
8.088
8.084
8.132
8.1
8.036
8.06
8.076
8.092
8.056
8.048
8.108
8.116
8.052
8.068
8.116
8.108
8.016
7.904
8.008
8.324
8.68
9.208
9.848
10.468
10.964
11.084
11.072
10.424
9.116
8.156
7.816
7.816
7.928
8.008
8.088
8.232
8.248
8.148
8.152
8.176
8.192
8.14
8.14
8.172
8.192
8.16
8.144
8.18
8.228
8.2
8.16
8.204
8.22
8.208
8.176
8.208
8.252
8.244
8.192
8.232
8.252
8.264
8.232
8.24
8.308
8.304
8.28
8.292
8.324
8.352
8.324
8.328
8.384
8.432
8.404
8.392
8.444
8.496
8.532
8.488
8.548
8.632
8.668
8.664
8.704
8.792
8.828
8.824
8.892
8.972
9.028
9.024
9.036
9.128
9.164
9.112
9.096
9.096
9.092
9.004
8.864
8.824
8.784
8.672
8.572
8.5
8.496
8.44
8.34
8.312
8.308
8.284
8.196
8.168
8.224
8.232
8.16
8.16
8.192
8.224
8.18
8.14
8.204
8.228
8.18
8.128
8.188
8.22
8.2
8.148
8.176
8.22
8.22
8.172
8.16
8.22
8.208
8.176
8.152
8.212
8.212
8.176
8.14
8.2
8.208
8.152
8.168
8.188
8.212
8.168
8.144
8.168
8.224
8.196
8.14
8.16
8.224
8.184
8.14
8.152
8.192
8.168
8.156
8.148
8.196
8.208
8.164
8.136
8.164
8.196
8.168
8.14
8.156
8.188
8.164
8.136
8.16
8.208
8.18
8.148
8.164
8.188
8.18
8.12
8.132
8.192
8.196
8.144
8.128
8.18
8.188
8.144
8.132
8.172
8.176
8.14
8.144
8.16
8.212
8.164
8.096
8.144
8.188
8.184
8.108
8.144
8.196
8.2
8.128
8.128
8.18
8.184
8.14
8.132
8.184
8.192
8.144
8.128
8.18
8.204
8.14
8.128
8.14
8.172
8.164
8.136
8.164
8.26
8.264
8.228
8.264
8.348
8.38
8.288
8.264
8.288
8.292
8.204
8.18
8.204
8.224
8.168
8.1
8.16
8.172
8.156
8.12
8.12
8.168
8.136
8.112
8.144
8.2
8.148
8.1
8.084
8.04
8
8.104
8.452
9.036
9.676
10.256
10.844
11.2
11.248
10.864
9.72
8.552
7.98
7.736
7.768
7.928
8.084
8.176
8.224
8.228
8.272
8.236
8.184
8.18
8.236
8.24
8.192
8.188
8.232
8.264
8.212
8.204
8.244
8.252
8.236
8.196
8.28
8.296
8.252
8.22
8.248
8.296
8.276
8.252
8.288
8.324
8.328
8.252
8.288
8.348
8.34
8.308
8.34
8.404
8.412
8.376
8.38
8.444
8.48
8.456
8.468
8.544
8.588
8.596
8.592
8.66
8.728
8.748
8.752
8.816
8.9
8.932
8.928
8.968
9.064
9.084
9.076
9.096
9.164
9.144
9.048
8.992
8.988
8.916
8.804
8.696
8.652
8.616
8.48
8.384
8.376
8.364
8.3
8.212
8.216
8.24
8.216
8.136
8.148
8.192
8.184
8.136
8.12
8.164
8.164
8.108
8.112
8.176
8.184
8.14
8.112
8.148
8.188
8.128
8.104
8.144
8.176
8.16
8.12
8.132
8.172
8.176
8.088
8.108
8.156
8.148
8.096
8.116
8.156
8.148
8.096
8.072
8.128
8.14
8.1
8.084
8.12
8.12
8.096
8.068
8.104
8.14
8.132
8.072
8.072
8.132
8.104
8.08
8.084
8.132
8.124
8.064
8.072
8.108
8.132
8.064
8.068
8.112
8.108
8.096
8.064
8.08
8.12
8.076
8.056
8.084
8.14
8.08
8.048
8.052
8.112
8.12
8.036
8.072
8.128
8.128
8.036
8.056
8.092
8.116
8.06
8.032
8.096
8.108
8.068
8.02
8.072
8.116
8.068
8.04
8.08
8.128
8.092
8.036
8.068
8.12
8.092
8.028
8.068
8.12
8.096
8.056
8.044
8.088
8.112
8.048
8.044
8.104
8.088
8.036
8.028
8.072
8.128
8.12
8.12
8.176
8.228
8.228
8.248
8.276
8.3
8.228
8.164
8.136
8.192
8.156
8.104
8.068
8.104
8.12
8.04
8.064
8.076
8.1
8.044
8.028
8.076
8.108
8.08
8.032
8.068
8.112
8.048
7.892
7.904
8.144
8.504
9.008
9.664
10.336
10.92
11.108
11.116
10.72
9.52
8.32
7.804
7.664
7.756
7.852
7.956
8.116
8.232
8.188
8.14
8.164
8.204
8.184
8.136
8.156
8.204
8.204
8.144
8.156
8.2
8.196
8.156
8.168
8.212
8.228
8.18
8.164
8.236
8.252
8.208
8.184
8.236
8.276
8.272
8.228
8.268
8.308
8.284
8.268
8.284
8.356
8.376
8.296
8.34
8.376
8.416
8.38
8.392
8.496
8.512
8.5
8.512
8.576
8.64
8.628
8.636
8.724
8.8
8.824
8.844
8.884
8.952
9.012
8.976
9.052
9.112
9.144
9.1
9.076
9.1
9.052
8.908
8.848
8.816
8.76
8.62
8.508
8.48
8.456
8.348
8.292
8.276
8.28
8.216
8.144
8.14
8.188
8.16
8.104
8.12
8.172
8.14
8.092
8.088
8.14
8.148
8.084
8.088
8.144
8.168
8.092
8.084
8.116
8.164
8.12
8.08
8.132
8.164
8.124
8.08
8.12
8.144
8.14
8.056
8.112
8.172
8.144
8.088
8.096
8.132
8.148
8.076
8.084
8.116
8.132
8.052
8.056
8.108
8.124
8.088
8.048
8.084
8.12
8.096
8.044
8.056
8.112
8.096
8.044
8.064
8.116
8.104
8.04
8.048
8.104
8.112
8.036
8.036
8.096
8.112
8.052
8.008
8.08
8.096
8.064
8.028
8.08
8.112
8.088
8.028
8.056
8.112
8.092
8.036
8.04
8.088
8.096
8.016
8.044
8.088
8.092
8.044
8.036
8.088
8.096
8.048
8.004
8.064
8.096
8.08
8.012
8.08
8.1
8.056
8.012
8.032
8.092
8.084
8.024
8.056
8.096
8.104
8.004
8.048
8.096
8.096
8.048
8.036
8.048
8.088
8.04
8.004
8.096
8.172
8.132
8.14
8.2
8.3
8.264
8.176
8.184
8.224
8.156
8.08
8.088
8.128
8.124
8.036
8.028
8.096
8.108
8.048
8.036
8.072
8.08
8.036
8.004
8.068
8.096
8.064
8.028
7.996
7.936
7.896
8.06
8.464
9.156
9.808
10.348
10.968
11.168
11.128
10.472
9.264
8.256
7.808
7.612
7.664
7.844
8.028
8.068
8.1
8.156
8.156
8.116
8.076
8.12
8.16
8.128
8.088
8.112
8.176
8.168
8.116
8.136
8.192
8.176
8.12
8.152
8.192
8.216
8.136
8.14
8.188
8.236
8.184
8.184
8.228
8.248
8.212
8.192
8.244
8.3
8.28
8.244
8.276
8.336
8.316
8.304
8.32
8.384
8.416
8.344
8.408
8.496
8.5
8.488
8.512
8.596
8.64
8.656
8.684
8.784
8.828
8.848
8.844
8.92
9
9.024
8.98
9.064
9.096
9.084
8.964
8.944
8.904
8.844
8.712
8.64
8.6
8.524
8.408
8.332
8.324
8.28
8.188
8.14
8.156
8.176
8.104
8.04
8.076
8.108
8.08
8.044
8.048
8.072
8.056
7.992
8.056
8.088
8.08
8.028
8.036
8.096
8.072
8.044
8.012
8.088
8.108
8.052
8.036
8.064
8.096
8.056
8
8.048
8.092
8.048
8.016
8.032
8.08
8.064
7.988
8.016
8.056
8.064
7.992
8.016
8.036
8.064
7.988
7.992
8.06
8.052
8.008
7.98
8.012
8.02
7.984
7.964
8.008
8.04
8.032
7.952
7.988
8.04
8.004
7.964
7.964
8.02
8.016
7.972
7.92
8.032
8.024
7.964
7.956
8.008
8.04
7.976
7.984
7.996
8.004
7.992
7.948
7.988
8.04
8
7.96
7.984
8.024
7.98
7.928
7.968
8.036
8.06
8.032
8.064
8.084
8.152
8.132
8.156
8.184
8.18
8.092
8.044
8.072
8.096
8.04
7.988
7.996
8.036
7.996
7.932
7.992
8.024
8.016
7.94
7.948
8.024
8.016
7.96
7.956
8.02
8
7.9
7.816
7.892
8.188
8.564
9.168
9.892
10.536
11.004
11.032
11.008
10.212
8.892
7.94
7.668
7.628
7.708
7.788
7.932
8.096
8.108
8.032
8.024
8.072
8.08
8.04
8.044
8.064
8.104
8.064
8.032
8.092
8.1
8.088
8.048
8.092
8.124
8.108
8.056
8.076
8.156
8.144
8.08
8.116
8.192
8.172
8.116
8.12
8.172
8.192
8.172
8.168
8.216
8.24
8.248
8.208
8.256
8.316
8.296
8.292
8.336
8.408
8.4
8.388
8.432
8.496
8.548
8.528
8.584
8.684
8.72
8.704
8.756
8.82
8.904
8.896
8.924
9
9.04
9.004
8.964
8.964
8.944
8.868
8.744
8.68
8.632
8.516
8.408
8.336
8.332
8.264
8.156
8.132
8.124
8.1
8.032
8.032
8.064
8.052
8.008
7.98
8.016
8.044
7.996
7.956
8.004
8.056
8.02
7.98
7.992
8.036
8.04
7.964
8
8.048
8.016
7.988
7.996
8.032
8.032
7.988
7.976
8.02
8.028
8.024
8.004
8.028
8.032
8
7.972
8.016
8.044
8.016
7.972
8.02
8.016
7.988
7.956
7.98
8.024
8.036
7.984
7.992
8.02
8.028
7.968
7.976
8.02
8.02
7.988
7.968
7.996
8.016
7.964
7.94
7.996
8.012
8
7.948
7.976
7.996
7.996
7.936
7.984
7.992
8
7.956
7.972
7.996
7.992
7.964
7.972
8.008
8.024
7.988
7.952
7.992
8.024
7.984
7.968
7.972
8.012
7.992
7.924
7.984
7.996
7.98
7.912
7.964
8.028
8.024
8
8.024
8.092
8.12
8.12
8.144
8.168
8.14
8.072
8.012
8.048
8.056
8.024
7.968
7.976
8.008
7.964
7.916
7.96
7.968
7.968
7.916
7.932
7.968
7.968
7.892
7.924
7.968
7.968
7.884
7.78
7.864
8.104
8.428
9.02
9.708
10.372
10.904
10.96
10.976
10.32
9.004
7.952
7.592
7.536
7.636
7.7
7.876
8.048
8.068
7.984
7.996
8.048
8.04
7.98
7.996
8.032
8.048
8.004
7.968
8.02
8.036
8.02
7.996
8.048
8.088
8.048
7.996
8.064
8.08
8.068
8.044
8.076
8.124
8.112
8.06
8.068
8.152
8.164
8.132
8.124
8.164
8.184
8.168
8.176
8.188
8.28
8.248
8.248
8.284
8.328
8.34
8.32
8.4
8.452
8.476
8.468
8.524
8.624
8.664
8.648
8.7
8.812
8.836
8.84
8.88
8.936
8.988
8.964
8.924
8.952
8.928
8.828
8.724
8.672
8.624
8.512
8.388
8.328
8.32
8.248
8.14
8.112
8.112
8.088
7.996
7.988
8.02
8.036
7.972
7.936
7.996
7.984
7.932
7.924
7.996
7.988
7.956
7.932
7.948
7.984
7.976
7.92
7.98
8.032
7.98
7.928
7.956
8.036
8
7.936
7.936
8.024
8.012
7.956
7.96
7.992
7.988
7.976
7.924
8
8.008
7.944
7.928
7.976
7.992
7.964
7.908
7.96
8.016
7.98
7.92
7.94
7.984
7.96
7.912
7.924
7.992
7.98
7.932
7.904
7.952
7.98
7.92
7.912
7.948
7.984
7.94
7.908
7.936
7.96
7.96
7.916
7.928
7.968
7.936
7.884
7.916
7.96
7.94
7.92
7.924
7.976
7.952
7.916
7.904
7.952
7.968
7.924
7.896
7.964
7.972
7.9
7.876
7.924
7.972
7.956
7.904
7.944
7.98
7.968
7.916
7.904
7.956
7.952
7.912
7.92
8.02
8.052
7.992
8.008
8.108
8.152
8.112
8.036
8.06
8.072
8.02
7.944
8.004
8.004
7.98
7.892
7.912
7.972
7.932
7.908
7.928
7.98
7.96
7.924
7.908
7.968
7.96
7.924
7.9
7.912
7.848
7.78
7.956
8.336
8.944
9.548
10.148
10.78
11.04
11.044
10.524
9.292
8.22
7.66
7.476
7.552
7.772
7.88
7.96
8.044
8.064
8.044
8.004
7.996
8.036
8.068
8.044
7.988
8.048
8.072
8.032
8.004
8.032
8.084
8.092
8.028
8.084
8.096
8.088
8.056
8.088
8.144
8.132
8.088
8.096
8.144
8.156
8.128
8.096
8.18
8.208
8.164
8.164
8.212
8.248
8.232
8.208
8.292
8.34
8.324
8.3
8.356
8.42
8.432
8.416
8.468
8.58
8.596
8.596
8.624
8.728
8.768
8.768
8.8
8.9
8.956
8.948
8.94
9.012
9.032
8.988
8.936
8.92
8.856
8.772
8.624
8.58
8.524
8.444
8.324
8.288
8.292
8.22
8.108
8.088
8.116
8.088
8.036
8.008
8.056
8.068
8.012
7.972
8.016
8.028
8
7.984
8.028
8.06
8.024
7.988
7.948
8.048
8.032
7.988
7.992
8.064
8.052
7.988
7.976
8.064
8.008
7.992
7.992
8.032
8.052
8.02
7.996
8.048
8.06
8.024
7.984
8.024
8.048
8.016
7.984
8.016
8.04
8.016
7.964
7.976
8.06
8.008
7.976
7.964
8.02
8.036
7.988
7.98
8.024
8.016
7.992
7.968
7.992
8.036
8.016
7.98
8
8.032
7.988
7.944
7.984
8.032
8
7.956
7.988
8.032
8.012
7.976
7.972
8.024
8.028
8.008
7.94
8.032
8.012
7.988
7.972
8
8.02
8.012
7.972
8.028
8.052
8.012
7.972
8
8.036
7.976
7.952
7.984
8.072
8.04
8.052
8.032
8.144
8.208
8.172
8.136
8.156
8.136
8.08
8.016
8.04
8.088
8.036
7.968
8.016
8.016
8
7.96
7.996
8.036
8
7.98
7.976
8.032
8.004
7.976
7.996
8.04
7.968
7.836
7.844
8.148
8.52
9.16
9.82
10.488
11.056
11.08
10.984
10.264
9.016
8.012
7.672
7.572
7.708
7.812
7.86
8.052
8.172
8.124
8.084
8.072
8.12
8.128
8.072
8.048
8.108
8.112
8.076
8.04
8.108
8.136
8.124
8.088
8.12
8.164
8.14
8.108
8.152
8.192
8.188
8.156
8.148
8.204
8.204
8.176
8.188
8.244
8.268
8.216
